timestamp,raw_ecg,baseline,peak_marker,marked
2026-09-14T05:47:27.312150,1294,1294,1294,0
2026-09-14T05:47:27.352386,1431,1294,1294,0
2026-09-14T05:47:27.372379,1399,1295,1295,0
2026-09-14T05:47:27.393245,1408,1295,1295,0
2026-09-14T05:47:27.413232,1367,1296,1296,0
2026-09-14T05:47:27.433391,1361,1296,1296,0
2026-09-14T05:47:27.453227,1406,1296,1296,0
2026-09-14T05:47:27.473313,1353,1297,1297,0
2026-09-14T05:47:27.493375,1324,1297,1297,0
2026-09-14T05:47:27.513387,1333,1297,1297,0
2026-09-14T05:47:27.533372,1333,1297,1297,0
2026-09-14T05:47:27.553357,1423,1298,1298,0
2026-09-14T05:47:27.574232,1563,1299,1299,0
2026-09-14T05:47:27.594378,1649,1301,1301,0
2026-09-14T05:47:27.614357,1677,1303,1303,0
2026-09-14T05:47:27.634379,1427,1303,1303,0
2026-09-14T05:47:27.654378,1453,1304,1304,0
2026-09-14T05:47:27.674393,1321,1304,1304,0
2026-09-14T05:47:27.694440,1344,1304,1304,0
2026-09-14T05:47:27.714395,1409,1305,1605,0
2026-09-14T05:47:27.735435,1562,1306,1306,0
2026-09-14T05:47:27.755402,1776,1309,1309,0
2026-09-14T05:47:27.775403,1610,1310,1310,0
2026-09-14T05:47:27.795417,1443,1311,1311,0
2026-09-14T05:47:27.815380,1302,1311,1311,0
2026-09-14T05:47:27.835396,1264,1311,1311,0
2026-09-14T05:47:27.855376,1393,1311,1311,0
2026-09-14T05:47:27.875408,1350,1311,1311,0
2026-09-14T05:47:27.896437,1376,1311,1311,0
2026-09-14T05:47:27.916397,1847,1314,1314,0
2026-09-14T05:47:27.936411,4095,1328,1328,0
2026-09-14T05:47:27.956393,1232,1328,1328,0
2026-09-14T05:47:27.976447,1597,1329,1329,0
2026-09-14T05:47:27.996323,1511,1330,1330,0
2026-09-14T05:47:28.016391,1563,1331,1331,0
2026-09-14T05:47:28.036404,1658,1333,1333,0
2026-09-14T05:47:28.056407,1878,1335,1335,0
2026-09-14T05:47:28.077416,1896,1338,1338,0
2026-09-14T05:47:28.097415,2033,1342,1342,0
2026-09-14T05:47:28.117450,2198,1346,1346,0
2026-09-14T05:47:28.137388,2416,1351,1351,0
2026-09-14T05:47:28.157409,2635,1358,1358,0
2026-09-14T05:47:28.177404,2582,1364,1364,0
2026-09-14T05:47:28.197398,2314,1368,1368,0
2026-09-14T05:47:28.217449,1851,1371,1371,0
2026-09-14T05:47:28.238439,1509,1372,1372,0
2026-09-14T05:47:28.258418,1456,1372,1372,0
2026-09-14T05:47:28.278384,1393,1372,1372,0
2026-09-14T05:47:28.298376,1381,1372,1372,0
2026-09-14T05:47:28.318319,1438,1372,1372,0
2026-09-14T05:47:28.348899,1695,1374,1674,0
2026-09-14T05:47:28.358369,1449,1374,1374,0
2026-09-14T05:47:28.378377,1489,1375,1375,0
2026-09-14T05:47:28.398461,1507,1376,1376,0
2026-09-14T05:47:28.419439,1478,1376,1376,0
2026-09-14T05:47:28.439373,1495,1377,1377,0
2026-09-14T05:47:28.459410,1492,1377,1377,0
2026-09-14T05:47:28.479400,1597,1378,1378,0
2026-09-14T05:47:28.499377,1573,1379,1379,0
2026-09-14T05:47:28.519373,1535,1380,1380,0
2026-09-14T05:47:28.539398,1599,1381,1381,0
2026-09-14T05:47:28.559558,1603,1382,1382,0
2026-09-14T05:47:28.580394,1855,1385,1385,0
2026-09-14T05:47:28.600384,1918,1387,1387,0
2026-09-14T05:47:28.620370,1922,1390,1390,0
2026-09-14T05:47:28.640370,1646,1391,1391,0
2026-09-14T05:47:28.660481,1609,1392,1392,0
2026-09-14T05:47:28.680446,1755,1394,1394,0
2026-09-14T05:47:28.700420,1631,1395,1395,0
2026-09-14T05:47:28.720456,1705,1397,1397,0
2026-09-14T05:47:28.740468,1789,1399,1399,0
2026-09-14T05:47:28.761482,1801,1401,1401,0
2026-09-14T05:47:28.781481,1835,1403,1403,0
2026-09-14T05:47:28.801482,1604,1404,1404,0
2026-09-14T05:47:28.821394,1443,1404,1404,0
2026-09-14T05:47:28.841436,1475,1405,1405,0
2026-09-14T05:47:28.861488,1488,1405,1405,0
2026-09-14T05:47:28.881467,1648,1406,1406,0
2026-09-14T05:47:28.901556,1510,1407,1407,0
2026-09-14T05:47:28.922440,3934,1419,1419,0
2026-09-14T05:47:28.942503,4095,1433,1433,0
2026-09-14T05:47:28.962479,1398,1433,1433,0
2026-09-14T05:47:28.982459,1712,1434,1434,0
2026-09-14T05:47:29.002466,1774,1436,1436,0
2026-09-14T05:47:29.022464,1637,1437,1437,0
2026-09-14T05:47:29.042475,1663,1438,1438,0
2026-09-14T05:47:29.062444,1744,1439,1439,0
2026-09-14T05:47:29.082509,2013,1442,1442,0
2026-09-14T05:47:29.103509,2085,1445,1445,0
2026-09-14T05:47:29.123461,2238,1449,1449,0
2026-09-14T05:47:29.143480,2407,1454,1454,0
2026-09-14T05:47:29.163482,2439,1459,1459,0
2026-09-14T05:47:29.183458,2449,1464,1464,0
2026-09-14T05:47:29.203465,1927,1466,1466,0
2026-09-14T05:47:29.323917,1239,1465,1465,0
2026-09-14T05:47:29.364551,1276,1464,1464,0
2026-09-14T05:47:29.384524,1360,1464,1464,0
2026-09-14T05:47:29.404536,1375,1463,1463,0
2026-09-14T05:47:29.424504,1309,1463,1463,0
2026-09-14T05:47:29.445551,1307,1462,1462,0
2026-09-14T05:47:29.465494,1307,1461,1461,0
2026-09-14T05:47:29.485536,1329,1460,1460,0
2026-09-14T05:47:29.505531,1389,1460,1460,0
2026-09-14T05:47:29.525452,1335,1459,1459,0
2026-09-14T05:47:29.545486,1331,1459,1459,0
2026-09-14T05:47:29.565520,1421,1459,1459,0
2026-09-14T05:47:29.585544,1675,1460,1460,0
2026-09-14T05:47:29.606581,1690,1461,1461,0
2026-09-14T05:47:29.626403,1762,1462,1462,0
2026-09-14T05:47:29.646387,1583,1463,1463,0
2026-09-14T05:47:29.666620,1616,1464,1464,0
2026-09-14T05:47:29.686563,1578,1464,1464,0
2026-09-14T05:47:29.706551,1535,1465,1465,0
2026-09-14T05:47:29.726560,1307,1464,1464,0
2026-09-14T05:47:29.746538,1338,1463,1463,0
2026-09-14T05:47:29.767422,1400,1463,1463,0
2026-09-14T05:47:29.787556,1430,1463,1463,0
2026-09-14T05:47:29.807427,1604,1463,1463,0
2026-09-14T05:47:29.827377,4095,1477,1477,0
2026-09-14T05:47:29.847546,4095,1490,1490,0
2026-09-14T05:47:29.867590,1231,1488,1488,0
2026-09-14T05:47:29.887431,1666,1489,1489,0
2026-09-14T05:47:29.907593,1823,1491,1491,0
2026-09-14T05:47:29.927558,1843,1493,1493,0
2026-09-14T05:47:29.948555,1946,1495,1495,0
2026-09-14T05:47:29.968549,2112,1498,1498,0
2026-09-14T05:47:29.988535,2294,1502,1502,0
2026-09-14T05:47:30.008658,2652,1508,1508,0
2026-09-14T05:47:30.028534,2786,1514,1514,0
2026-09-14T05:47:30.048580,3063,1522,1522,0
2026-09-14T05:47:30.068527,3198,1530,1530,0
2026-09-14T05:47:30.088555,3031,1538,1538,0
2026-09-14T05:47:30.109600,2694,1543,1543,0
2026-09-14T05:47:30.129590,2189,1547,1547,0
2026-09-14T05:47:30.149597,2047,1549,1549,0
2026-09-14T05:47:30.169584,2027,1552,1552,0
2026-09-14T05:47:30.189602,2087,1554,1554,0
2026-09-14T05:47:30.209593,2258,1558,1558,0
2026-09-14T05:47:30.229582,2207,1561,1561,0
2026-09-14T05:47:30.249571,2256,1564,1564,0
2026-09-14T05:47:30.269574,2297,1568,1568,0
2026-09-14T05:47:30.290471,2290,1572,1572,0
2026-09-14T05:47:30.310432,2441,1576,1576,0
2026-09-14T05:47:30.330420,2369,1580,1580,0
2026-09-14T05:47:30.361235,2523,1585,1585,0
2026-09-14T05:47:30.370591,2309,1588,1588,0
2026-09-14T05:47:30.390566,2297,1592,1592,0
2026-09-14T05:47:30.410601,2433,1596,1596,0
2026-09-14T05:47:30.430673,2355,1600,1600,0
2026-09-14T05:47:30.451453,2316,1604,1604,0
2026-09-14T05:47:30.471485,2273,1607,1607,0
2026-09-14T05:47:30.491498,2294,1610,1610,0
2026-09-14T05:47:30.511457,2449,1614,1614,0
2026-09-14T05:47:30.531497,2480,1619,1619,0
2026-09-14T05:47:30.551500,2439,1623,1623,0
2026-09-14T05:47:30.571477,2544,1628,1628,0
2026-09-14T05:47:30.591481,2423,1631,1631,0
2026-09-14T05:47:30.612553,2224,1634,1634,0
2026-09-14T05:47:30.632495,2045,1636,1636,0
2026-09-14T05:47:30.652517,1885,1638,1638,0
2026-09-14T05:47:30.672555,1843,1639,1639,0
2026-09-14T05:47:30.692543,1812,1640,1640,0
2026-09-14T05:47:30.712539,4095,1652,1652,0
2026-09-14T05:47:30.732464,4095,1664,1664,0
2026-09-14T05:47:30.752497,1445,1663,1663,0
2026-09-14T05:47:30.772544,1724,1663,1663,0
2026-09-14T05:47:30.793550,1686,1663,1663,0
2026-09-14T05:47:30.813542,1684,1664,1664,0
2026-09-14T05:47:30.833621,1813,1664,1664,0
2026-09-14T05:47:30.853547,1806,1665,1665,0
2026-09-14T05:47:30.873588,1882,1666,1666,0
2026-09-14T05:47:30.893538,2000,1668,1668,0
2026-09-14T05:47:30.913526,2217,1670,1670,0
2026-09-14T05:47:30.933519,2471,1674,1674,0
2026-09-14T05:47:30.954531,2455,1678,1678,0
2026-09-14T05:47:30.974838,2256,1681,1681,0
2026-09-14T05:47:30.994571,1712,1681,1681,0
2026-09-14T05:47:31.014537,1264,1679,1679,0
2026-09-14T05:47:31.034596,1154,1677,1677,0
2026-09-14T05:47:31.054418,963,1673,1673,0
2026-09-14T05:47:31.074342,976,1670,1670,0
2026-09-14T05:47:31.094611,1007,1666,1666,0
2026-09-14T05:47:31.115601,1045,1663,1663,0
2026-09-14T05:47:31.135621,1175,1661,1661,0
2026-09-14T05:47:31.155601,1047,1658,1658,0
2026-09-14T05:47:31.175576,1022,1655,1655,0
2026-09-14T05:47:31.195589,1152,1652,1652,0
2026-09-14T05:47:31.215467,895,1648,1648,0
2026-09-14T05:47:31.336056,1175,1646,1646,0
2026-09-14T05:47:31.376656,1040,1643,1643,0
2026-09-14T05:47:31.396662,1098,1640,1640,0
2026-09-14T05:47:31.416669,1187,1638,1638,0
2026-09-14T05:47:31.436536,1438,1637,1637,0
2026-09-14T05:47:31.457572,1441,1636,1636,0
2026-09-14T05:47:31.477560,1416,1635,1635,0
2026-09-14T05:47:31.497516,1169,1632,1632,0
2026-09-14T05:47:31.517654,1013,1629,1629,0
2026-09-14T05:47:31.537648,1123,1627,1627,0
2026-09-14T05:47:31.557606,1070,1624,1624,0
2026-09-14T05:47:31.577593,1138,1622,1622,0
2026-09-14T05:47:31.597553,1168,1619,1619,0
2026-09-14T05:47:31.618641,2174,1622,1622,0
2026-09-14T05:47:31.638653,4095,1634,1634,0
2026-09-14T05:47:31.658456,559,1629,1629,0
2026-09-14T05:47:31.678649,1285,1627,1627,0
2026-09-14T05:47:31.698624,1280,1626,1626,0
2026-09-14T05:47:31.718595,1342,1624,1624,0
2026-09-14T05:47:31.738595,1489,1623,1623,0
2026-09-14T05:47:31.758662,1535,1623,1623,0
2026-09-14T05:47:31.779711,1658,1623,1623,0
2026-09-14T05:47:31.799647,1808,1624,1624,0
2026-09-14T05:47:31.819626,2000,1626,1626,0
2026-09-14T05:47:31.839584,2285,1629,1629,0
2026-09-14T05:47:31.859647,2361,1633,1633,0
2026-09-14T05:47:31.879741,2358,1637,1637,0
2026-09-14T05:47:31.899541,1987,1638,1638,0
2026-09-14T05:47:31.919594,1532,1638,1638,0
2026-09-14T05:47:31.939772,1264,1636,1636,0
2026-09-14T05:47:31.960601,1227,1634,1634,0
2026-09-14T05:47:31.980591,1201,1632,1632,0
2026-09-14T05:47:32.000564,1200,1630,1630,0
2026-09-14T05:47:32.020622,1223,1627,1627,0
2026-09-14T05:47:32.040609,1267,1626,1626,0
2026-09-14T05:47:32.060606,1375,1624,1624,0
2026-09-14T05:47:32.080686,1318,1623,1623,0
2026-09-14T05:47:32.100730,1337,1621,1621,0
2026-09-14T05:47:32.121685,1325,1620,1620,0
2026-09-14T05:47:32.141685,1354,1619,1619,0
2026-09-14T05:47:32.161685,1465,1618,1618,0
2026-09-14T05:47:32.181663,1387,1617,1617,0
2026-09-14T05:47:32.201696,1395,1616,1616,0
2026-09-14T05:47:32.221716,1392,1614,1614,0
2026-09-14T05:47:32.241730,1418,1614,1614,0
2026-09-14T05:47:32.261738,1535,1613,1613,0
2026-09-14T05:47:32.282729,1440,1612,1612,0
2026-09-14T05:47:32.302751,1460,1611,1611,0
2026-09-14T05:47:32.322556,1562,1611,1611,0
2026-09-14T05:47:32.342598,1677,1612,1612,0
2026-09-14T05:47:32.373554,1917,1613,1613,0
2026-09-14T05:47:32.382566,1585,1613,1613,0
2026-09-14T05:47:32.402604,1365,1612,1612,0
2026-09-14T05:47:32.422614,1346,1610,1610,0
2026-09-14T05:47:32.442617,1362,1609,1609,0
2026-09-14T05:47:32.463617,1535,1609,1609,0
2026-09-14T05:47:32.483630,1465,1608,1608,0
2026-09-14T05:47:32.503686,1714,1609,1609,0
2026-09-14T05:47:32.523618,4095,1621,1621,0
2026-09-14T05:47:32.543635,1584,1621,1621,0
2026-09-14T05:47:32.564609,1664,1621,1621,0
2026-09-14T05:47:32.583675,1479,1620,1620,0
2026-09-14T05:47:32.603618,1507,1620,1620,0
2026-09-14T05:47:32.624637,1554,1619,1619,0
2026-09-14T05:47:32.644660,1661,1620,1620,0
2026-09-14T05:47:32.664645,1854,1621,1621,0
2026-09-14T05:47:32.684635,1920,1622,1622,0
2026-09-14T05:47:32.704654,2096,1625,1625,0
2026-09-14T05:47:32.724646,2334,1628,1628,0
2026-09-14T05:47:32.744654,2446,1632,1632,0
2026-09-14T05:47:32.764628,2507,1637,1637,0
2026-09-14T05:47:32.785703,2179,1639,1639,0
2026-09-14T05:47:32.805664,1663,1639,1639,0
2026-09-14T05:47:32.825691,1313,1638,1938,0
2026-09-14T05:47:32.845696,1200,1636,1636,0
2026-09-14T05:47:32.865677,1215,1634,1634,0
2026-09-14T05:47:32.885711,1277,1632,1632,0
2026-09-14T05:47:32.905730,1269,1630,1630,0
2026-09-14T05:47:32.925710,1274,1628,1628,0
2026-09-14T05:47:32.946762,1296,1626,1626,0
2026-09-14T05:47:32.966761,1310,1625,1625,0
2026-09-14T05:47:32.986767,1352,1624,1624,0
2026-09-14T05:47:33.006815,1338,1622,1622,0
2026-09-14T05:47:33.026803,1321,1621,1621,0
2026-09-14T05:47:33.046786,1328,1619,1619,0
2026-09-14T05:47:33.066861,1334,1618,1618,0
2026-09-14T05:47:33.086732,1463,1617,1617,0
2026-09-14T05:47:33.106761,1412,1616,1616,0
2026-09-14T05:47:33.127618,1494,1615,1615,0
2026-09-14T05:47:33.147629,1616,1615,1615,0
2026-09-14T05:47:33.167816,1713,1616,1916,0
2026-09-14T05:47:33.187669,1843,1617,1617,0
2026-09-14T05:47:33.207678,1585,1617,1617,0
2026-09-14T05:47:33.227672,1399,1616,1616,0
2026-09-14T05:47:33.348212,4095,1628,1628,0
2026-09-14T05:47:33.388712,1723,1629,1629,0
2026-09-14T05:47:33.408756,1578,1628,1628,0
2026-09-14T05:47:33.428754,1623,1628,1628,0
2026-09-14T05:47:33.449744,1681,1628,1628,0
2026-09-14T05:47:33.469776,1776,1629,1929,0
2026-09-14T05:47:33.489761,2032,1631,1631,0
2026-09-14T05:47:33.509784,2160,1634,1634,0
2026-09-14T05:47:33.529881,2381,1638,1638,0
2026-09-14T05:47:33.549778,2624,1643,1643,0
2026-09-14T05:47:33.569798,2747,1648,1648,0
2026-09-14T05:47:33.589792,2830,1654,1654,0
2026-09-14T05:47:33.609740,2323,1657,1657,0
2026-09-14T05:47:33.630816,1650,1657,1657,0
2026-09-14T05:47:33.650854,1350,1656,1656,0
2026-09-14T05:47:33.670821,1273,1654,1654,0
2026-09-14T05:47:33.690814,1382,1652,1652,0
2026-09-14T05:47:33.710691,1297,1651,1651,0
2026-09-14T05:47:33.730653,1327,1649,1649,0
2026-09-14T05:47:33.750649,1351,1648,1648,0
2026-09-14T05:47:33.770732,1381,1646,1646,0
2026-09-14T05:47:33.791694,1499,1645,1645,0
2026-09-14T05:47:33.811749,1406,1644,1644,0
2026-09-14T05:47:33.831784,1379,1643,1643,0
2026-09-14T05:47:33.851750,1371,1642,1642,0
2026-09-14T05:47:33.871794,1359,1640,1640,0
2026-09-14T05:47:33.891791,1457,1639,1639,0
2026-09-14T05:47:33.911795,1431,1638,1638,0
2026-09-14T05:47:33.931781,1425,1637,1637,0
2026-09-14T05:47:33.951765,1451,1636,1636,0
2026-09-14T05:47:33.972850,1463,1635,1635,0
2026-09-14T05:47:33.992834,1535,1635,1635,0
2026-09-14T05:47:34.012819,1552,1634,1634,0
2026-09-14T05:47:34.032831,1556,1634,1634,0
2026-09-14T05:47:34.052832,1643,1634,1634,0
2026-09-14T05:47:34.072840,1751,1635,1935,0
2026-09-14T05:47:34.092953,1874,1636,1636,0
2026-09-14T05:47:34.112849,1937,1637,1637,0
2026-09-14T05:47:34.133597,1618,1637,1637,0
2026-09-14T05:47:34.153714,1463,1636,1636,0
2026-09-14T05:47:34.173714,1466,1636,1636,0
2026-09-14T05:47:34.193728,1481,1635,1635,0
2026-09-14T05:47:34.213717,1586,1635,1635,0
2026-09-14T05:47:34.233710,1535,1634,1634,0
2026-09-14T05:47:34.253710,2372,1638,1638,0
2026-09-14T05:47:34.273774,4095,1650,1650,0
2026-09-14T05:47:34.294774,1077,1647,1647,0
2026-09-14T05:47:34.314770,1824,1648,1648,0
2026-09-14T05:47:34.334794,1735,1648,1648,0
2026-09-14T05:47:34.354735,1757,1649,1649,0
2026-09-14T05:47:34.385913,2045,1651,1651,0
2026-09-14T05:47:34.394818,1827,1652,1652,0
2026-09-14T05:47:34.414817,1941,1653,1653,0
2026-09-14T05:47:34.434830,2014,1655,1655,0
2026-09-14T05:47:34.454840,2202,1658,1658,0
2026-09-14T05:47:34.475888,2448,1662,1662,0
2026-09-14T05:47:34.495897,2559,1666,1666,0
2026-09-14T05:47:34.515892,2635,1671,1671,0
2026-09-14T05:47:34.535976,2224,1674,1674,0
2026-09-14T05:47:34.555881,1747,1674,1674,0
2026-09-14T05:47:34.575875,1446,1673,1673,0
2026-09-14T05:47:34.595762,1352,1671,1671,0
2026-09-14T05:47:34.615756,1478,1670,1670,0
2026-09-14T05:47:34.636772,1360,1669,1669,0
2026-09-14T05:47:34.656760,1397,1668,1668,0
2026-09-14T05:47:34.676812,1418,1666,1666,0
2026-09-14T05:47:34.696778,1413,1665,1665,0
2026-09-14T05:47:34.716775,1624,1665,1665,0
2026-09-14T05:47:34.736832,1454,1664,1664,0
2026-09-14T05:47:34.756817,1441,1663,1663,0
2026-09-14T05:47:34.776873,1446,1662,1662,0
2026-09-14T05:47:34.796866,1456,1661,1661,0
2026-09-14T05:47:34.817872,1584,1660,1660,0
2026-09-14T05:47:34.837897,1472,1659,1659,0
2026-09-14T05:47:34.857926,1490,1658,1658,0
2026-09-14T05:47:34.877876,1510,1658,1658,0
2026-09-14T05:47:34.897907,1520,1657,1657,0
2026-09-14T05:47:34.917917,1648,1657,1657,0
2026-09-14T05:47:34.937921,1572,1656,1956,0
2026-09-14T05:47:34.957991,1595,1656,1656,0
2026-09-14T05:47:34.978832,1594,1656,1656,0
2026-09-14T05:47:34.998767,1744,1656,1656,0
2026-09-14T05:47:35.018782,1886,1657,1657,0
2026-09-14T05:47:35.038797,1883,1659,1659,0
2026-09-14T05:47:35.058807,1821,1659,1659,0
2026-09-14T05:47:35.078817,1654,1659,1659,0
2026-09-14T05:47:35.098849,1531,1659,1659,0
2026-09-14T05:47:35.119042,1602,1658,1658,0
2026-09-14T05:47:35.139823,1624,1658,1658,0
2026-09-14T05:47:35.159868,1627,1658,1658,0
2026-09-14T05:47:35.179860,1711,1658,1658,0
2026-09-14T05:47:35.199833,3850,1669,1669,0
2026-09-14T05:47:35.219876,4095,1681,1681,0
2026-09-14T05:47:35.239869,1488,1680,1680,0
2026-09-14T05:47:35.360359,2203,1683,1683,0
2026-09-14T05:47:35.400939,2608,1688,1688,0
2026-09-14T05:47:35.420976,2734,1693,1693,0
2026-09-14T05:47:35.441018,2859,1699,1699,0
2026-09-14T05:47:35.461001,2740,1704,1704,0
2026-09-14T05:47:35.481795,2262,1707,1707,0
2026-09-14T05:47:35.501853,1828,1707,1707,0
2026-09-14T05:47:35.521840,1611,1707,1707,0
2026-09-14T05:47:35.541819,1712,1707,1707,0
2026-09-14T05:47:35.561895,1620,1706,2006,0
2026-09-14T05:47:35.581809,1616,1706,1706,0
2026-09-14T05:47:35.601847,1661,1706,1706,0
2026-09-14T05:47:35.621858,1674,1706,1706,0
2026-09-14T05:47:35.642870,1794,1706,1706,0
2026-09-14T05:47:35.662878,1730,1706,1706,0
2026-09-14T05:47:35.682891,1733,1706,1706,0
2026-09-14T05:47:35.702890,1757,1707,1707,0
2026-09-14T05:47:35.722904,1744,1707,1707,0
2026-09-14T05:47:35.742873,1894,1708,1708,0
2026-09-14T05:47:35.762880,1811,1708,1708,0
2026-09-14T05:47:35.782863,1823,1709,1709,0
2026-09-14T05:47:35.802900,1838,1709,1709,0
2026-09-14T05:47:35.823903,1840,1710,1710,0
2026-09-14T05:47:35.843905,1961,1711,1711,0
2026-09-14T05:47:35.863898,1895,1712,1712,0
2026-09-14T05:47:35.883928,1927,1713,1713,0
2026-09-14T05:47:35.903927,2045,1715,1715,0
2026-09-14T05:47:35.923926,2142,1717,1717,0
2026-09-14T05:47:35.943933,2233,1720,1720,0
2026-09-14T05:47:35.963938,2035,1721,1721,0
2026-09-14T05:47:35.984958,1820,1722,1722,0
2026-09-14T05:47:36.004975,1759,1722,1722,0
2026-09-14T05:47:36.024943,1750,1722,1722,0
2026-09-14T05:47:36.044972,1883,1723,1723,0
2026-09-14T05:47:36.064898,1839,1723,1723,0
2026-09-14T05:47:36.085073,1797,1724,1724,0
2026-09-14T05:47:36.104996,4095,1736,1736,0
2026-09-14T05:47:36.125024,4095,1747,1747,0
2026-09-14T05:47:36.146024,1840,1748,1748,0
2026-09-14T05:47:36.165961,1842,1748,1748,0
2026-09-14T05:47:36.186020,1807,1749,1749,0
2026-09-14T05:47:36.206019,1871,1749,1749,0
2026-09-14T05:47:36.225987,1894,1750,1750,0
2026-09-14T05:47:36.246076,2012,1751,1751,0
2026-09-14T05:47:36.266013,2096,1753,1753,0
2026-09-14T05:47:36.286026,2234,1755,1755,0
2026-09-14T05:47:36.306053,2429,1759,1759,0
2026-09-14T05:47:36.326944,2607,1763,1763,0
2026-09-14T05:47:36.346868,2656,1767,1767,0
2026-09-14T05:47:36.366884,2461,1771,1771,0
2026-09-14T05:47:36.398110,2034,1772,1772,0
2026-09-14T05:47:36.406895,1648,1772,1772,0
2026-09-14T05:47:36.426869,1476,1770,1770,0
2026-09-14T05:47:36.446880,1422,1768,1768,0
2026-09-14T05:47:36.466870,1470,1767,1767,0
2026-09-14T05:47:36.487958,1394,1765,1765,0
2026-09-14T05:47:36.507956,1295,1763,1763,0
2026-09-14T05:47:36.527926,1278,1760,1760,0
2026-09-14T05:47:36.548006,1264,1758,1758,0
2026-09-14T05:47:36.567898,1333,1756,1756,0
2026-09-14T05:47:36.587962,1279,1753,1753,0
2026-09-14T05:47:36.607954,1259,1751,1751,0
2026-09-14T05:47:36.627950,1257,1748,1748,0
2026-09-14T05:47:36.648982,1223,1746,1746,0
2026-09-14T05:47:36.668933,1344,1744,1744,0
2026-09-14T05:47:36.688964,1271,1741,1741,0
2026-09-14T05:47:36.708982,1278,1739,1739,0
2026-09-14T05:47:36.729028,1281,1737,1737,0
2026-09-14T05:47:36.748935,1305,1735,1735,0
2026-09-14T05:47:36.768994,1409,1733,1733,0
2026-09-14T05:47:36.789049,1357,1731,1731,0
2026-09-14T05:47:36.809007,1347,1729,1729,0
2026-09-14T05:47:36.830032,1353,1727,1727,0
2026-09-14T05:47:36.850722,1414,1726,1726,0
2026-09-14T05:47:36.870050,1671,1725,1725,0
2026-09-14T05:47:36.890035,1659,1725,1725,0
2026-09-14T05:47:36.910042,1611,1724,1724,0
2026-09-14T05:47:36.930274,1430,1723,1723,0
2026-09-14T05:47:36.950028,1278,1721,1721,0
2026-09-14T05:47:36.970080,1402,1719,1719,0
2026-09-14T05:47:36.990910,1306,1717,1717,0
2026-09-14T05:47:37.010939,1334,1715,1715,0
2026-09-14T05:47:37.030904,1441,1714,1714,0
2026-09-14T05:47:37.050936,2505,1718,1718,0
2026-09-14T05:47:37.070981,4095,1730,1730,0
2026-09-14T05:47:37.090936,885,1725,1725,0
2026-09-14T05:47:37.111031,1553,1725,1725,0
2026-09-14T05:47:37.130946,1498,1723,1723,0
2026-09-14T05:47:37.151993,1437,1722,1722,0
2026-09-14T05:47:37.172014,1629,1722,1722,0
2026-09-14T05:47:37.191999,1614,1721,1721,0
2026-09-14T05:47:37.212052,1686,1721,1721,0
2026-09-14T05:47:37.231971,1846,1721,1721,0
2026-09-14T05:47:37.251996,2039,1723,1723,0
2026-09-14T05:47:37.372572,1330,1721,1721,0
2026-09-14T05:47:37.413049,1230,1719,1719,0
2026-09-14T05:47:37.432992,1254,1716,1716,0
2026-09-14T05:47:37.453083,1325,1714,1714,0
2026-09-14T05:47:37.474060,1394,1713,1713,0
2026-09-14T05:47:37.494064,1425,1711,1711,0
2026-09-14T05:47:37.514043,1421,1710,1710,0
2026-09-14T05:47:37.534107,1454,1709,1709,0
2026-09-14T05:47:37.554056,1451,1707,1707,0
2026-09-14T05:47:37.574078,1486,1706,1706,0
2026-09-14T05:47:37.594102,1587,1706,1706,0
2026-09-14T05:47:37.614144,1535,1705,1705,0
2026-09-14T05:47:37.634112,1572,1704,1704,0
2026-09-14T05:47:37.655058,1594,1703,1703,0
2026-09-14T05:47:37.675096,1615,1703,1703,0
2026-09-14T05:47:37.695130,1737,1703,1703,0
2026-09-14T05:47:37.715135,1712,1703,1703,0
2026-09-14T05:47:37.735154,1781,1704,1704,0
2026-09-14T05:47:37.755150,1926,1705,1705,0
2026-09-14T05:47:37.775153,2040,1706,1706,0
2026-09-14T05:47:37.795161,2083,1708,1708,0
2026-09-14T05:47:37.815965,1872,1709,1709,0
2026-09-14T05:47:37.835920,1718,1709,1709,0
2026-09-14T05:47:37.855948,1699,1709,1709,0
2026-09-14T05:47:37.876018,1743,1709,1709,0
2026-09-14T05:47:37.896005,1872,1710,1710,0
2026-09-14T05:47:37.915984,1834,1711,1711,0
2026-09-14T05:47:37.936069,2018,1712,1712,0
2026-09-14T05:47:37.955876,4095,1724,1724,0
2026-09-14T05:47:37.977065,2858,1730,1730,0
2026-09-14T05:47:37.997037,2128,1732,1732,0
2026-09-14T05:47:38.017039,1925,1733,1733,0
2026-09-14T05:47:38.037094,1930,1734,1734,0
2026-09-14T05:47:38.057042,1979,1735,1735,0
2026-09-14T05:47:38.077048,2074,1737,1737,0
2026-09-14T05:47:38.097060,2288,1739,1739,0
2026-09-14T05:47:38.117035,2326,1742,1742,0
2026-09-14T05:47:38.138101,2483,1746,1746,0
2026-09-14T05:47:38.158080,2706,1751,1751,0
2026-09-14T05:47:38.178184,2879,1756,1756,0
2026-09-14T05:47:38.198112,3035,1763,1763,0
2026-09-14T05:47:38.218085,2661,1767,1767,0
2026-09-14T05:47:38.238039,2224,1770,1770,0
2026-09-14T05:47:38.258129,1840,1770,1770,0
2026-09-14T05:47:38.278094,1583,1769,1769,0
2026-09-14T05:47:38.299140,1649,1768,1768,0
2026-09-14T05:47:38.319157,1424,1767,1767,0
2026-09-14T05:47:38.339121,1456,1765,1765,0
2026-09-14T05:47:38.359105,1466,1764,1764,0
2026-09-14T05:47:38.379046,1564,1763,1763,0
2026-09-14T05:47:38.409965,1936,1764,1764,0
2026-09-14T05:47:38.419140,1625,1763,1763,0
2026-09-14T05:47:38.439182,1630,1762,1762,0
2026-09-14T05:47:38.459131,1647,1762,1762,0
2026-09-14T05:47:38.480252,1671,1761,1761,0
2026-09-14T05:47:38.500170,1753,1761,1761,0
2026-09-14T05:47:38.520137,1717,1761,1761,0
2026-09-14T05:47:38.540155,1667,1760,2060,0
2026-09-14T05:47:38.560169,1699,1760,1760,0
2026-09-14T05:47:38.580184,1756,1760,1760,0
2026-09-14T05:47:38.600160,1843,1760,1760,0
2026-09-14T05:47:38.620040,1798,1761,1761,0
2026-09-14T05:47:38.641041,1534,1759,1759,0
2026-09-14T05:47:38.661126,1328,1757,1757,0
2026-09-14T05:47:38.681066,1296,1755,1755,0
2026-09-14T05:47:38.701071,1438,1753,1753,0
2026-09-14T05:47:38.721075,1533,1752,1752,0
2026-09-14T05:47:38.741077,1471,1751,1751,0
2026-09-14T05:47:38.761113,3680,1761,1761,0
2026-09-14T05:47:38.781093,4095,1772,1772,0
2026-09-14T05:47:38.802132,1257,1770,1770,0
2026-09-14T05:47:38.822127,1441,1768,1768,0
2026-09-14T05:47:38.842114,1397,1766,1766,0
2026-09-14T05:47:38.862101,1440,1765,1765,0
2026-09-14T05:47:38.882129,1523,1763,1763,0
2026-09-14T05:47:38.902065,1600,1762,1762,0
2026-09-14T05:47:38.922094,1791,1763,1763,0
2026-09-14T05:47:38.942125,1873,1763,1763,0
2026-09-14T05:47:38.962142,2121,1765,1765,0
2026-09-14T05:47:38.983247,2291,1768,1768,0
2026-09-14T05:47:39.003190,2351,1771,1771,0
2026-09-14T05:47:39.023168,2301,1773,1773,0
2026-09-14T05:47:39.043212,1735,1773,1773,0
2026-09-14T05:47:39.063165,1334,1771,1771,0
2026-09-14T05:47:39.083156,1168,1768,1768,0
2026-09-14T05:47:39.103197,1106,1764,1764,0
2026-09-14T05:47:39.123189,1243,1762,1762,0
2026-09-14T05:47:39.144214,1165,1759,1759,0
2026-09-14T05:47:39.164205,1187,1756,1756,0
2026-09-14T05:47:39.184201,1217,1753,1753,0
2026-09-14T05:47:39.204204,1221,1751,1751,0
2026-09-14T05:47:39.224322,1356,1749,1749,0
2026-09-14T05:47:39.244219,1232,1746,1746,0
2026-09-14T05:47:39.264224,1216,1743,1743,0
2026-09-14T05:47:39.384669,1303,1741,1741,0
2026-09-14T05:47:39.425272,1530,1740,1740,0
2026-09-14T05:47:39.445148,1593,1739,1739,0
2026-09-14T05:47:39.465084,1687,1739,1739,0
2026-09-14T05:47:39.486242,1621,1739,1739,0
2026-09-14T05:47:39.506168,1435,1737,1737,0
2026-09-14T05:47:39.526155,1427,1735,1735,0
2026-09-14T05:47:39.546162,1325,1733,1733,0
2026-09-14T05:47:39.566167,1335,1731,1731,0
2026-09-14T05:47:39.586180,1386,1730,1730,0
2026-09-14T05:47:39.606148,1411,1728,1728,0
2026-09-14T05:47:39.626204,2126,1730,1730,0
2026-09-14T05:47:39.647206,4095,1742,1742,0
2026-09-14T05:47:39.667005,878,1738,1738,0
2026-09-14T05:47:39.687179,1599,1737,1737,0
2026-09-14T05:47:39.707250,1574,1736,1736,0
2026-09-14T05:47:39.727194,1658,1736,1736,0
2026-09-14T05:47:39.747228,1737,1736,1736,0
2026-09-14T05:47:39.767298,1791,1736,1736,0
2026-09-14T05:47:39.787226,1903,1737,2037,0
2026-09-14T05:47:39.807234,2075,1738,1738,0
2026-09-14T05:47:39.828239,2314,1741,1741,0
2026-09-14T05:47:39.848285,2603,1746,1746,0
2026-09-14T05:47:39.868262,2733,1751,1751,0
2026-09-14T05:47:39.888272,2726,1755,1755,0
2026-09-14T05:47:39.908270,2442,1759,1759,0
2026-09-14T05:47:39.928146,1964,1760,1760,0
2026-09-14T05:47:39.948126,1742,1760,1760,0
2026-09-14T05:47:39.968142,1615,1759,1759,0
2026-09-14T05:47:39.989189,1615,1758,1758,0
2026-09-14T05:47:40.009188,1651,1758,1758,0
2026-09-14T05:47:40.029175,1667,1757,1757,0
2026-09-14T05:47:40.049131,1783,1758,1758,0
2026-09-14T05:47:40.069169,1766,1758,1758,0
2026-09-14T05:47:40.089188,1792,1758,1758,0
2026-09-14T05:47:40.109168,1795,1758,1758,0
2026-09-14T05:47:40.129144,1825,1758,1758,0
2026-09-14T05:47:40.150201,1908,1759,2059,0
2026-09-14T05:47:40.170194,1856,1759,1759,0
2026-09-14T05:47:40.190202,1891,1760,1760,0
2026-09-14T05:47:40.210225,1909,1761,1761,0
2026-09-14T05:47:40.230687,1925,1762,1762,0
2026-09-14T05:47:40.250160,2038,1763,1763,0
2026-09-14T05:47:40.270219,1985,1764,1764,0
2026-09-14T05:47:40.290255,2099,1766,1766,0
2026-09-14T05:47:40.310251,2192,1768,1768,0
2026-09-14T05:47:40.331324,2257,1770,1770,0
2026-09-14T05:47:40.351255,2352,1773,1773,0
2026-09-14T05:47:40.371214,2071,1775,1775,0
2026-09-14T05:47:40.391146,1903,1775,1775,0
2026-09-14T05:47:40.422527,2117,1777,1777,0
2026-09-14T05:47:40.431312,1925,1778,1778,0
2026-09-14T05:47:40.451250,2112,1780,1780,0
2026-09-14T05:47:40.471275,1984,1781,1781,0
2026-09-14T05:47:40.492303,2967,1787,1787,0
2026-09-14T05:47:40.512322,4095,1798,1798,0
2026-09-14T05:47:40.532296,1584,1797,1797,0
2026-09-14T05:47:40.552294,2178,1799,1799,0
2026-09-14T05:47:40.572329,2142,1801,1801,0
2026-09-14T05:47:40.592808,2038,1802,1802,0
2026-09-14T05:47:40.612275,2058,1803,1803,0
2026-09-14T05:47:40.632265,2117,1805,1805,0
2026-09-14T05:47:40.653364,2300,1807,1807,0
2026-09-14T05:47:40.673344,2345,1810,1810,0
2026-09-14T05:47:40.693348,2480,1813,1813,0
2026-09-14T05:47:40.713364,2672,1817,1817,0
2026-09-14T05:47:40.733211,2736,1822,1822,0
2026-09-14T05:47:40.753404,2771,1827,1827,0
2026-09-14T05:47:40.773219,2401,1830,1830,0
2026-09-14T05:47:40.793164,1849,1830,1830,0
2026-09-14T05:47:40.813162,1522,1828,2128,0
2026-09-14T05:47:40.834207,1415,1826,1826,0
2026-09-14T05:47:40.854236,1426,1824,1824,0
2026-09-14T05:47:40.874636,1399,1822,1822,0
2026-09-14T05:47:40.894228,1362,1820,1820,0
2026-09-14T05:47:40.914251,1374,1817,1817,0
2026-09-14T05:47:40.934251,1365,1815,1815,0
2026-09-14T05:47:40.954290,1361,1813,1813,0
2026-09-14T05:47:40.974270,1367,1811,1811,0
2026-09-14T05:47:40.995308,1317,1808,1808,0
2026-09-14T05:47:41.015269,1295,1806,1806,0
2026-09-14T05:47:41.035310,1296,1803,1803,0
2026-09-14T05:47:41.055336,1280,1800,1800,0
2026-09-14T05:47:41.075296,1344,1798,1798,0
2026-09-14T05:47:41.095305,1310,1796,1796,0
2026-09-14T05:47:41.115318,1327,1793,1793,0
2026-09-14T05:47:41.135309,1325,1791,1791,0
2026-09-14T05:47:41.156353,1344,1789,1789,0
2026-09-14T05:47:41.176344,1405,1787,1787,0
2026-09-14T05:47:41.196346,1411,1785,1785,0
2026-09-14T05:47:41.216313,1559,1784,1784,0
2026-09-14T05:47:41.236392,1648,1783,1783,0
2026-09-14T05:47:41.256349,1581,1782,1782,0
2026-09-14T05:47:41.276288,1489,1781,1781,0
2026-09-14T05:47:41.396839,1558,1780,1780,0
2026-09-14T05:47:41.437373,1414,1778,1778,0
2026-09-14T05:47:41.457374,1456,1776,1776,0
2026-09-14T05:47:41.477351,1472,1775,1775,0
2026-09-14T05:47:41.498327,1410,1773,1773,0
2026-09-14T05:47:41.518382,1465,1771,1771,0
2026-09-14T05:47:41.538327,1520,1770,1770,0
2026-09-14T05:47:41.558403,1593,1769,1769,0
2026-09-14T05:47:41.578316,1878,1770,1770,0
2026-09-14T05:47:41.598357,1918,1770,1770,0
2026-09-14T05:47:41.618358,2128,1772,1772,0
2026-09-14T05:47:41.638310,2263,1775,1775,0
2026-09-14T05:47:41.659401,2263,1777,1777,0
2026-09-14T05:47:41.679340,2192,1779,1779,0
2026-09-14T05:47:41.699382,1593,1778,1778,0
2026-09-14T05:47:41.719392,1219,1775,1775,0
2026-09-14T05:47:41.739402,1091,1772,1772,0
2026-09-14T05:47:41.759411,1045,1768,1768,0
2026-09-14T05:47:41.779442,1186,1765,1765,0
2026-09-14T05:47:41.799362,1127,1762,1762,0
2026-09-14T05:47:41.820408,1122,1759,1759,0
2026-09-14T05:47:41.840435,1131,1756,1756,0
2026-09-14T05:47:41.860229,1132,1753,1753,0
2026-09-14T05:47:41.880424,1213,1750,1750,0
2026-09-14T05:47:41.900419,1155,1747,1747,0
2026-09-14T05:47:41.920426,1129,1744,1744,0
2026-09-14T05:47:41.940390,1143,1741,1741,0
2026-09-14T05:47:41.960408,1167,1738,1738,0
2026-09-14T05:47:41.981428,1229,1736,1736,0
2026-09-14T05:47:42.001525,1223,1733,1733,0
2026-09-14T05:47:42.021457,1227,1730,1730,0
2026-09-14T05:47:42.041430,1250,1728,1728,0
2026-09-14T05:47:42.061454,1263,1726,1726,0
2026-09-14T05:47:42.081262,1377,1724,1724,0
2026-09-14T05:47:42.101314,1763,1724,1724,0
2026-09-14T05:47:42.121360,1918,1725,1725,0
2026-09-14T05:47:42.141322,1853,1726,1726,0
2026-09-14T05:47:42.162309,1446,1724,1724,0
2026-09-14T05:47:42.182315,1215,1722,1722,0
2026-09-14T05:47:42.202307,1235,1719,1719,0
2026-09-14T05:47:42.222305,1233,1717,1717,0
2026-09-14T05:47:42.242315,1255,1715,1715,0
2026-09-14T05:47:42.262316,1290,1713,1713,0
2026-09-14T05:47:42.282555,2001,1714,1714,0
2026-09-14T05:47:42.302341,4095,1726,1726,0
2026-09-14T05:47:42.323316,573,1720,1720,0
2026-09-14T05:47:42.343345,1454,1719,1719,0
2026-09-14T05:47:42.363357,1420,1717,1717,0
2026-09-14T05:47:42.383328,1461,1716,1716,0
2026-09-14T05:47:42.403337,1686,1716,1716,0
2026-09-14T05:47:42.434145,1919,1717,1717,0
2026-09-14T05:47:42.443336,1770,1717,1717,0
2026-09-14T05:47:42.463362,1946,1718,1718,0
2026-09-14T05:47:42.484330,2160,1720,1720,0
2026-09-14T05:47:42.504345,2467,1724,1724,0
2026-09-14T05:47:42.524354,2503,1728,1728,0
2026-09-14T05:47:42.544337,2453,1732,1732,0
2026-09-14T05:47:42.564324,2130,1734,1734,0
2026-09-14T05:47:42.584312,1695,1734,1734,0
2026-09-14T05:47:42.604354,1535,1733,1733,0
2026-09-14T05:47:42.624303,1328,1730,1730,0
2026-09-14T05:47:42.644504,1328,1728,1728,0
2026-09-14T05:47:42.665330,1350,1727,1727,0
2026-09-14T05:47:42.685340,1371,1725,1725,0
2026-09-14T05:47:42.705319,1535,1724,1724,0
2026-09-14T05:47:42.725322,1444,1722,1722,0
2026-09-14T05:47:42.745366,1442,1721,1721,0
2026-09-14T05:47:42.765324,1406,1719,1719,0
2026-09-14T05:47:42.785328,1431,1718,1718,0
2026-09-14T05:47:42.805333,1558,1717,1717,0
2026-09-14T05:47:42.826269,1456,1716,1716,0
2026-09-14T05:47:42.846296,1456,1715,1715,0
2026-09-14T05:47:42.866346,1459,1713,1713,0
2026-09-14T05:47:42.886374,1489,1712,1712,0
2026-09-14T05:47:42.906388,1623,1712,1712,0
2026-09-14T05:47:42.926376,1577,1711,1711,0
2026-09-14T05:47:42.946365,1727,1711,1711,0
2026-09-14T05:47:42.966427,1812,1712,1712,0
2026-09-14T05:47:42.987426,1815,1712,1712,0
2026-09-14T05:47:43.007395,1882,1713,1713,0
2026-09-14T05:47:43.027418,1639,1713,1713,0
2026-09-14T05:47:43.047425,1498,1712,1712,0
2026-09-14T05:47:43.067455,1489,1710,1710,0
2026-09-14T05:47:43.087484,1535,1710,1710,0
2026-09-14T05:47:43.107463,1616,1709,1709,0
2026-09-14T05:47:43.127488,1595,1709,1709,0
2026-09-14T05:47:43.147424,2832,1714,1714,0
2026-09-14T05:47:43.168499,4095,1726,1726,0
2026-09-14T05:47:43.188470,1088,1723,1723,0
2026-09-14T05:47:43.208457,1675,1723,1723,0
2026-09-14T05:47:43.228486,1697,1722,1722,0
2026-09-14T05:47:44.878181,1966,1724,1724,0
2026-09-14T05:47:44.918509,4095,1736,1736,0
2026-09-14T05:47:44.938550,1779,1736,1736,0
2026-09-14T05:47:44.958555,2215,1738,1738,0
2026-09-14T05:47:44.979570,1988,1739,1739,0
2026-09-14T05:47:44.999546,1993,1741,1741,0
2026-09-14T05:47:45.019584,2029,1742,1742,0
2026-09-14T05:47:45.039581,2093,1744,1744,0
2026-09-14T05:47:45.059565,2320,1747,1747,0
2026-09-14T05:47:45.079550,2547,1751,1751,0
2026-09-14T05:47:45.099558,2719,1756,1756,0
2026-09-14T05:47:45.119612,2923,1761,1761,0
2026-09-14T05:47:45.139591,2675,1766,1766,0
2026-09-14T05:47:45.160660,2704,1771,1771,0
2026-09-14T05:47:45.180465,2259,1773,1773,0
2026-09-14T05:47:45.200596,1786,1773,1773,0
2026-09-14T05:47:45.220558,1478,1772,1772,0
2026-09-14T05:47:45.240616,1346,1770,1770,0
2026-09-14T05:47:45.260612,1410,1768,1768,0
2026-09-14T05:47:45.280597,1382,1766,1766,0
2026-09-14T05:47:45.300584,1327,1764,1764,0
2026-09-14T05:47:45.321622,1322,1761,1761,0
2026-09-14T05:47:45.341575,1292,1759,1759,0
2026-09-14T05:47:45.361643,1363,1757,1757,0
2026-09-14T05:47:45.381614,1290,1755,1755,0
2026-09-14T05:47:45.401641,1253,1752,1752,0
2026-09-14T05:47:45.421620,1221,1750,1750,0
2026-09-14T05:47:45.441621,1229,1747,1747,0
2026-09-14T05:47:45.461597,1238,1744,1744,0
2026-09-14T05:47:45.482603,1263,1742,1742,0
2026-09-14T05:47:45.502635,1244,1740,1740,0
2026-09-14T05:47:45.522631,1251,1737,1737,0
2026-09-14T05:47:45.542630,1264,1735,1735,0
2026-09-14T05:47:45.563015,1298,1733,1733,0
2026-09-14T05:47:45.582646,1340,1731,1731,0
2026-09-14T05:47:45.602650,1307,1728,1728,0
2026-09-14T05:47:45.622659,1312,1726,1726,0
2026-09-14T05:47:45.642659,1382,1725,1725,0
2026-09-14T05:47:45.663732,1511,1724,1724,0
2026-09-14T05:47:45.683662,1661,1723,1723,0
2026-09-14T05:47:45.703652,1570,1722,1722,0
2026-09-14T05:47:45.723677,1383,1721,1721,0
2026-09-14T05:47:45.743716,1231,1718,1718,0
2026-09-14T05:47:45.763719,1227,1716,1716,0
2026-09-14T05:47:45.783688,1330,1714,1714,0
2026-09-14T05:47:45.803717,1296,1712,1712,0
2026-09-14T05:47:45.824537,1328,1710,1710,0
2026-09-14T05:47:45.844554,1947,1711,1711,0
2026-09-14T05:47:45.864566,4095,1723,1723,0
2026-09-14T05:47:45.884529,711,1718,1718,0
2026-09-14T05:47:45.915475,1591,1717,1717,0
2026-09-14T05:47:45.924458,1370,1716,1716,0
2026-09-14T05:47:45.944622,1410,1714,1714,0
2026-09-14T05:47:45.964605,1488,1713,1713,0
2026-09-14T05:47:45.985641,1648,1713,1713,0
2026-09-14T05:47:46.005627,1674,1712,1712,0
2026-09-14T05:47:46.025633,1818,1713,1713,0
2026-09-14T05:47:46.045595,2001,1714,1714,0
2026-09-14T05:47:46.065633,2192,1717,1717,0
2026-09-14T05:47:46.085629,2397,1720,1720,0
2026-09-14T05:47:46.105603,2290,1723,1723,0
2026-09-14T05:47:46.125647,2023,1724,1724,0
2026-09-14T05:47:46.146528,1563,1724,1724,0
2026-09-14T05:47:46.166654,1273,1721,1721,0
2026-09-14T05:47:46.186644,1280,1719,1719,0
2026-09-14T05:47:46.206639,1183,1717,1717,0
2026-09-14T05:47:46.227075,1253,1714,1714,0
2026-09-14T05:47:46.246694,1190,1712,1712,0
2026-09-14T05:47:46.266668,1285,1709,1709,0
2026-09-14T05:47:46.286666,1383,1708,1708,0
2026-09-14T05:47:46.307759,1317,1706,1706,0
2026-09-14T05:47:46.327715,1251,1704,1704,0
2026-09-14T05:47:46.347688,1264,1701,1701,0
2026-09-14T05:47:46.367732,1241,1699,1699,0
2026-09-14T05:47:46.387704,1295,1697,1697,0
2026-09-14T05:47:46.407621,1214,1695,1695,0
2026-09-14T05:47:46.427735,1191,1692,1692,0
2026-09-14T05:47:46.447786,1168,1689,1689,0
2026-09-14T05:47:46.467735,1228,1687,1687,0
2026-09-14T05:47:46.488629,1379,1686,1686,0
2026-09-14T05:47:46.508627,1477,1685,1685,0
2026-09-14T05:47:46.528611,1535,1684,1684,0
2026-09-14T05:47:46.548654,1535,1683,1683,0
2026-09-14T05:47:46.568601,1417,1682,1682,0
2026-09-14T05:47:46.588852,1294,1680,1680,0
2026-09-14T05:47:46.608646,1280,1678,1678,0
2026-09-14T05:47:46.628642,1286,1676,1676,0
2026-09-14T05:47:46.649656,1331,1674,1674,0
2026-09-14T05:47:46.669678,1383,1673,1673,0
2026-09-14T05:47:46.689669,1476,1672,1672,0
2026-09-14T05:47:46.709639,4095,1684,1684,0
2026-09-14T05:47:46.729688,2276,1687,1687,0
2026-09-14T05:47:46.749652,1520,1686,1686,0
2026-09-14T05:47:46.769698,1471,1685,1685,0
2026-09-14T05:47:46.890196,2117,1687,1687,0
2026-09-14T05:47:46.930783,2526,1691,1691,0
2026-09-14T05:47:46.950717,2534,1695,1695,0
2026-09-14T05:47:46.971736,2317,1699,1699,0
2026-09-14T05:47:46.991776,1857,1699,1699,0
2026-09-14T05:47:47.011762,1595,1699,1699,0
2026-09-14T05:47:47.031733,1407,1697,1697,0
2026-09-14T05:47:47.051775,1347,1696,1696,0
2026-09-14T05:47:47.071756,1373,1694,1694,0
2026-09-14T05:47:47.091762,1367,1692,1692,0
2026-09-14T05:47:47.111753,1600,1692,1692,0
2026-09-14T05:47:47.132812,1457,1691,1691,0
2026-09-14T05:47:47.152791,1450,1689,1689,0
2026-09-14T05:47:47.172783,1413,1688,1688,0
2026-09-14T05:47:47.192770,1413,1687,1687,0
2026-09-14T05:47:47.212775,1530,1686,1686,0
2026-09-14T05:47:47.232756,1437,1685,1685,0
2026-09-14T05:47:47.252820,1425,1683,1683,0
2026-09-14T05:47:47.272789,1418,1682,1682,0
2026-09-14T05:47:47.293804,1459,1681,1681,0
2026-09-14T05:47:47.313692,1603,1681,1681,0
2026-09-14T05:47:47.333679,1503,1680,1680,0
2026-09-14T05:47:47.353677,1510,1679,1679,0
2026-09-14T05:47:47.373637,1504,1678,1678,0
2026-09-14T05:47:47.393683,1552,1677,1677,0
2026-09-14T05:47:47.413640,1700,1677,1677,0
2026-09-14T05:47:47.433706,1749,1678,1678,0
2026-09-14T05:47:47.453631,1823,1678,1678,0
2026-09-14T05:47:47.474663,1798,1679,1679,0
2026-09-14T05:47:47.494688,1717,1679,1679,0
2026-09-14T05:47:47.514687,1665,1679,1679,0
2026-09-14T05:47:47.534698,1492,1678,1678,0
2026-09-14T05:47:47.554693,1491,1677,1677,0
2026-09-14T05:47:47.574697,1501,1676,1676,0
2026-09-14T05:47:47.594716,1530,1676,1676,0
2026-09-14T05:47:47.614721,1651,1676,1676,0
2026-09-14T05:47:47.635746,4095,1688,1688,0
2026-09-14T05:47:47.655729,2949,1694,1694,0
2026-09-14T05:47:47.675770,1671,1694,1694,0
2026-09-14T05:47:47.696212,1614,1693,1693,0
2026-09-14T05:47:47.715730,1715,1694,1694,0
2026-09-14T05:47:47.735810,1737,1694,1694,0
2026-09-14T05:47:47.755811,1792,1694,1994,0
2026-09-14T05:47:47.775781,1858,1695,1695,0
2026-09-14T05:47:47.796789,2002,1697,1697,0
2026-09-14T05:47:47.816815,2210,1699,1699,0
2026-09-14T05:47:47.836836,2432,1703,1703,0
2026-09-14T05:47:47.856835,2557,1707,1707,0
2026-09-14T05:47:47.876873,2559,1711,1711,0
2026-09-14T05:47:47.896701,2431,1715,1715,0
2026-09-14T05:47:47.927876,2133,1717,1717,0
2026-09-14T05:47:47.936863,1636,1717,1717,0
2026-09-14T05:47:47.957710,1438,1715,1715,0
2026-09-14T05:47:47.977757,1395,1714,1714,0
2026-09-14T05:47:47.997709,1402,1712,1712,0
2026-09-14T05:47:48.017927,1404,1711,1711,0
2026-09-14T05:47:48.037717,1488,1709,1709,0
2026-09-14T05:47:48.057726,1445,1708,1708,0
2026-09-14T05:47:48.077721,1441,1707,1707,0
2026-09-14T05:47:48.097718,1431,1705,1705,0
2026-09-14T05:47:48.118947,1441,1704,1704,0
2026-09-14T05:47:48.138726,1522,1703,1703,0
2026-09-14T05:47:48.158731,1459,1702,1702,0
2026-09-14T05:47:48.178738,1463,1701,1701,0
2026-09-14T05:47:48.198720,1467,1700,1700,0
2026-09-14T05:47:48.218705,1476,1698,1698,0
2026-09-14T05:47:48.238999,1599,1698,1698,0
2026-09-14T05:47:48.258710,1534,1697,1697,0
2026-09-14T05:47:48.278729,1527,1696,1696,0
2026-09-14T05:47:48.299791,1584,1696,1696,0
2026-09-14T05:47:48.319756,1593,1695,1695,0
2026-09-14T05:47:48.339724,1712,1695,1695,0
2026-09-14T05:47:48.359735,1623,1695,1695,0
2026-09-14T05:47:48.379805,1617,1694,1694,0
2026-09-14T05:47:48.399764,1655,1694,1694,0
2026-09-14T05:47:48.419777,1792,1695,1995,0
2026-09-14T05:47:48.440148,2006,1696,1696,0
2026-09-14T05:47:48.460794,1882,1697,1697,0
2026-09-14T05:47:48.481013,1728,1697,1697,0
2026-09-14T05:47:48.500798,1584,1697,1697,0
2026-09-14T05:47:48.520819,1520,1696,1696,0
2026-09-14T05:47:48.540792,1704,1696,1696,0
2026-09-14T05:47:48.560837,1838,1697,1697,0
2026-09-14T05:47:48.580811,1877,1698,1698,0
2026-09-14T05:47:48.600784,1922,1699,1699,0
2026-09-14T05:47:48.621836,4095,1711,1711,0
2026-09-14T05:47:48.641819,3889,1722,1722,0
2026-09-14T05:47:48.661817,1633,1721,1721,0
2026-09-14T05:47:48.681779,1552,1720,1720,0
2026-09-14T05:47:48.701794,1554,1719,1719,0
2026-09-14T05:47:48.721779,1611,1719,1719,0
2026-09-14T05:47:48.741825,1760,1719,1719,0
2026-09-14T05:47:48.761771,1780,1719,1719,0
2026-09-14T05:47:48.782805,1919,1720,1720,0
2026-09-14T05:47:48.903357,1920,1721,1721,0
2026-09-14T05:47:48.942905,1360,1720,1720,0
2026-09-14T05:47:48.963933,1390,1718,1718,0
2026-09-14T05:47:48.983875,1347,1716,1716,0
2026-09-14T05:47:49.003851,1366,1714,1714,0
2026-09-14T05:47:49.023881,1392,1713,1713,0
2026-09-14T05:47:49.043869,1378,1711,1711,0
2026-09-14T05:47:49.063866,1440,1710,1710,0
2026-09-14T05:47:49.083868,1424,1708,1708,0
2026-09-14T05:47:49.103896,1390,1707,1707,0
2026-09-14T05:47:49.124882,1378,1705,1705,0
2026-09-14T05:47:49.144925,1362,1703,1703,0
2026-09-14T05:47:49.164909,1465,1702,1702,0
2026-09-14T05:47:49.184908,1415,1701,1701,0
2026-09-14T05:47:49.204920,1423,1699,1699,0
2026-09-14T05:47:49.224938,1446,1698,1698,0
2026-09-14T05:47:49.244933,1438,1697,1697,0
2026-09-14T05:47:49.264918,1571,1696,1696,0
2026-09-14T05:47:49.285938,1567,1695,1695,0
2026-09-14T05:47:49.306007,1555,1695,1695,0
2026-09-14T05:47:49.326019,1588,1694,1694,0
2026-09-14T05:47:49.345968,1584,1694,1694,0
2026-09-14T05:47:49.365925,1719,1694,1694,0
2026-09-14T05:47:49.385958,1763,1694,1694,0
2026-09-14T05:47:49.405938,1830,1695,1995,0
2026-09-14T05:47:49.425968,1851,1696,1696,0
2026-09-14T05:47:49.445937,1815,1696,1696,0
2026-09-14T05:47:49.466996,1759,1696,1696,0
2026-09-14T05:47:49.486981,1573,1696,1696,0
2026-09-14T05:47:49.507006,1584,1695,1695,0
2026-09-14T05:47:49.526941,1595,1695,1695,0
2026-09-14T05:47:49.546923,1628,1694,1694,0
2026-09-14T05:47:49.566888,1713,1695,1695,0
2026-09-14T05:47:49.586936,4047,1706,1706,0
2026-09-14T05:47:49.606894,4095,1718,1718,0
2026-09-14T05:47:49.627947,1564,1717,1717,0
2026-09-14T05:47:49.647930,1727,1717,1717,0
2026-09-14T05:47:49.667921,1860,1718,1718,0
2026-09-14T05:47:49.687924,1823,1719,1719,0
2026-09-14T05:47:49.707903,1873,1719,1719,0
2026-09-14T05:47:49.727926,1957,1721,1721,0
2026-09-14T05:47:49.747946,2081,1722,1722,0
2026-09-14T05:47:49.767891,2359,1726,1726,0
2026-09-14T05:47:49.788946,2465,1729,1729,0
2026-09-14T05:47:49.808937,2690,1734,1734,0
2026-09-14T05:47:49.828918,2701,1739,1739,0
2026-09-14T05:47:49.848911,2605,1743,1743,0
2026-09-14T05:47:49.868918,2248,1746,1746,0
2026-09-14T05:47:49.888951,1749,1746,1746,0
2026-09-14T05:47:49.908839,1493,1745,2045,0
2026-09-14T05:47:49.940359,1626,1744,1744,0
2026-09-14T05:47:49.949889,1460,1743,1743,0
2026-09-14T05:47:49.969940,1589,1742,1742,0
2026-09-14T05:47:49.989891,1565,1741,1741,0
2026-09-14T05:47:50.009867,1575,1740,1740,0
2026-09-14T05:47:50.029877,1585,1739,1739,0
2026-09-14T05:47:50.049869,1522,1738,1738,0
2026-09-14T05:47:50.070056,1519,1737,1737,0
2026-09-14T05:47:50.089846,1531,1736,1736,0
2026-09-14T05:47:50.109864,1474,1735,1735,0
2026-09-14T05:47:50.130864,1463,1733,1733,0
2026-09-14T05:47:50.150861,1497,1732,1732,0
2026-09-14T05:47:50.170898,1475,1731,1731,0
2026-09-14T05:47:50.191736,1535,1730,1730,0
2026-09-14T05:47:50.210898,1532,1729,1729,0
2026-09-14T05:47:50.231068,1535,1728,1728,0
2026-09-14T05:47:50.251057,1566,1727,1727,0
2026-09-14T05:47:50.271118,1680,1727,1727,0
2026-09-14T05:47:50.291896,1950,1728,1728,0
2026-09-14T05:47:50.311849,1973,1729,1729,0
2026-09-14T05:47:50.332094,1716,1729,1729,0
2026-09-14T05:47:50.352076,1565,1728,2028,0
2026-09-14T05:47:50.372108,1461,1727,1727,0
2026-09-14T05:47:50.392117,1583,1726,1726,0
2026-09-14T05:47:50.412089,1527,1725,1725,0
2026-09-14T05:47:50.431985,1599,1725,1725,0
2026-09-14T05:47:50.453031,1649,1724,1724,0
2026-09-14T05:47:50.473010,4095,1736,1736,0
2026-09-14T05:47:50.492983,3421,1745,1745,0
2026-09-14T05:47:50.513007,1581,1744,1744,0
2026-09-14T05:47:50.533000,1573,1743,1743,0
2026-09-14T05:47:50.552990,1600,1742,1742,0
2026-09-14T05:47:50.572951,1666,1742,1742,0
2026-09-14T05:47:50.592970,1942,1743,1743,0
2026-09-14T05:47:50.613954,1903,1744,1744,0
2026-09-14T05:47:50.633951,2062,1745,1745,0
2026-09-14T05:47:50.653983,2234,1748,1748,0
2026-09-14T05:47:50.673988,2409,1751,1751,0
2026-09-14T05:47:50.693986,2728,1756,1756,0
2026-09-14T05:47:50.713973,2658,1760,1760,0
2026-09-14T05:47:50.733944,2461,1764,1764,0
2026-09-14T05:47:50.753975,1959,1765,1765,0
2026-09-14T05:47:50.773955,1587,1764,1764,0
2026-09-14T05:47:50.794995,1584,1763,1763,0
2026-09-14T05:47:50.915493,1412,1761,1761,0
2026-09-14T05:47:50.955982,1406,1759,1759,0
2026-09-14T05:47:50.976021,1218,1757,1757,0
2026-09-14T05:47:50.996024,1285,1754,1754,0
2026-09-14T05:47:51.015962,1201,1752,1752,0
2026-09-14T05:47:51.035991,1232,1749,1749,0
2026-09-14T05:47:51.055988,1264,1747,1747,0
2026-09-14T05:47:51.075962,1171,1744,1744,0
2026-09-14T05:47:51.096024,1377,1742,1742,0
2026-09-14T05:47:51.117792,1530,1741,1741,0
2026-09-14T05:47:51.137033,1638,1740,1740,0
2026-09-14T05:47:51.156978,1643,1740,1740,0
2026-09-14T05:47:51.177013,1594,1739,1739,0
2026-09-14T05:47:51.197004,1483,1738,1738,0
2026-09-14T05:47:51.216978,1457,1736,1736,0
2026-09-14T05:47:51.236990,1378,1735,1735,0
2026-09-14T05:47:51.256981,1447,1733,1733,0
2026-09-14T05:47:51.278037,1520,1732,1732,0
2026-09-14T05:47:51.298050,2931,1738,1738,0
2026-09-14T05:47:51.318032,4095,1750,1750,0
2026-09-14T05:47:51.338005,754,1745,1745,0
2026-09-14T05:47:51.357960,1726,1745,1745,0
2026-09-14T05:47:51.378019,1712,1745,1745,0
2026-09-14T05:47:51.397944,1753,1745,1745,0
2026-09-14T05:47:51.417923,1910,1745,2045,0
2026-09-14T05:47:51.437966,1954,1747,1747,0
2026-09-14T05:47:51.458959,2107,1748,1748,0
2026-09-14T05:47:51.478948,2263,1751,1751,0
2026-09-14T05:47:51.499145,2480,1755,1755,0
2026-09-14T05:47:51.518978,2816,1760,1760,0
2026-09-14T05:47:51.538990,2903,1766,1766,0
2026-09-14T05:47:51.558960,2828,1771,1771,0
2026-09-14T05:47:51.578978,2382,1774,1774,0
2026-09-14T05:47:51.599017,1877,1774,1774,0
2026-09-14T05:47:51.619996,1711,1774,1774,0
2026-09-14T05:47:51.640039,1573,1773,1773,0
2026-09-14T05:47:51.659989,1535,1772,1772,0
2026-09-14T05:47:51.679995,1584,1771,1771,0
2026-09-14T05:47:51.700000,1600,1770,1770,0
2026-09-14T05:47:51.720009,1872,1771,1771,0
2026-09-14T05:47:51.739974,1975,1772,1772,0
2026-09-14T05:47:51.759962,1991,1773,1773,0
2026-09-14T05:47:51.780967,2015,1774,1774,0
2026-09-14T05:47:51.800991,1983,1775,1775,0
2026-09-14T05:47:51.820981,1837,1775,1775,0
2026-09-14T05:47:51.840975,1601,1774,1774,0
2026-09-14T05:47:51.861000,1575,1773,1773,0
2026-09-14T05:47:51.880975,1570,1772,1772,0
2026-09-14T05:47:51.900995,1683,1772,1772,0
2026-09-14T05:47:51.921005,1888,1773,1773,0
2026-09-14T05:47:51.952043,1931,1773,1773,0
2026-09-14T05:47:51.962024,1762,1773,1773,0
2026-09-14T05:47:51.981972,1588,1772,2072,0
2026-09-14T05:47:52.001980,1511,1771,1771,0
2026-09-14T05:47:52.022196,1671,1771,1771,0
2026-09-14T05:47:52.042173,1585,1770,1770,0
2026-09-14T05:47:52.062201,1591,1769,1769,0
2026-09-14T05:47:52.082205,1687,1768,1768,0
2026-09-14T05:47:52.102171,4095,1780,1780,0
2026-09-14T05:47:52.123220,3508,1789,1789,0
2026-09-14T05:47:52.143207,1620,1788,1788,0
2026-09-14T05:47:52.163194,1657,1787,1787,0
2026-09-14T05:47:52.183219,1618,1786,1786,0
2026-09-14T05:47:52.203191,1689,1786,1786,0
2026-09-14T05:47:52.223200,1849,1786,1786,0
2026-09-14T05:47:52.243175,1917,1787,1787,0
2026-09-14T05:47:52.263223,2002,1788,1788,0
2026-09-14T05:47:52.284208,2262,1790,1790,0
2026-09-14T05:47:52.303983,2500,1794,1794,0
2026-09-14T05:47:52.324212,2752,1798,1798,0
2026-09-14T05:47:52.344199,2747,1803,1803,0
2026-09-14T05:47:52.364290,2448,1806,1806,0
2026-09-14T05:47:52.384194,1910,1807,1807,0
2026-09-14T05:47:52.404219,1509,1805,1805,0
2026-09-14T05:47:52.424211,1398,1803,1803,0
2026-09-14T05:47:52.445178,1433,1802,1802,0
2026-09-14T05:47:52.465089,1445,1800,1800,0
2026-09-14T05:47:52.485187,1437,1798,1798,0
2026-09-14T05:47:52.505260,1470,1796,1796,0
2026-09-14T05:47:52.525232,1498,1795,1795,0
2026-09-14T05:47:52.545197,1570,1794,1794,0
2026-09-14T05:47:52.565214,1552,1792,1792,0
2026-09-14T05:47:52.585231,1504,1791,1791,0
2026-09-14T05:47:52.605205,1535,1790,1790,0
2026-09-14T05:47:52.626226,1580,1789,1789,0
2026-09-14T05:47:52.646033,1647,1788,1788,0
2026-09-14T05:47:52.666224,1635,1787,1787,0
2026-09-14T05:47:52.686206,1725,1787,1787,0
2026-09-14T05:47:52.706226,1787,1787,1787,0
2026-09-14T05:47:52.726253,1820,1787,1787,0
2026-09-14T05:47:52.746273,1808,1787,1787,0
2026-09-14T05:47:52.766233,1535,1786,2086,0
2026-09-14T05:47:52.787241,1558,1785,1785,0
2026-09-14T05:47:52.807247,1520,1783,1783,0
2026-09-14T05:47:52.927654,1531,1782,1782,0
2026-09-14T05:47:52.968244,1679,1782,1782,0
2026-09-14T05:47:52.988273,1731,1781,1781,0
2026-09-14T05:47:53.008238,1701,1781,1781,0
2026-09-14T05:47:53.028269,1803,1781,1781,0
2026-09-14T05:47:53.048259,2026,1782,1782,0
2026-09-14T05:47:53.068270,2054,1784,1784,0
2026-09-14T05:47:53.088244,2337,1786,1786,0
2026-09-14T05:47:53.108255,2559,1790,1790,0
2026-09-14T05:47:53.129280,2663,1795,1795,0
2026-09-14T05:47:53.149252,2547,1798,1798,0
2026-09-14T05:47:53.169260,1855,1799,1799,0
2026-09-14T05:47:53.189229,1530,1797,1797,0
2026-09-14T05:47:53.209142,1439,1796,1796,0
2026-09-14T05:47:53.229089,1427,1794,1794,0
2026-09-14T05:47:53.249147,1606,1793,1793,0
2026-09-14T05:47:53.269027,1532,1791,1791,0
2026-09-14T05:47:53.289990,1568,1790,1790,0
2026-09-14T05:47:53.310143,1595,1789,1789,0
2026-09-14T05:47:53.330068,1635,1789,1789,0
2026-09-14T05:47:53.350092,1749,1788,1788,0
2026-09-14T05:47:53.370064,1631,1788,1788,0
2026-09-14T05:47:53.390087,1605,1787,1787,0
2026-09-14T05:47:53.410073,1603,1786,1786,0
2026-09-14T05:47:53.430082,1629,1785,1785,0
2026-09-14T05:47:53.451134,1761,1785,1785,0
2026-09-14T05:47:53.471078,1649,1784,2084,0
2026-09-14T05:47:53.491024,1609,1783,1783,0
2026-09-14T05:47:53.511107,1648,1783,1783,0
2026-09-14T05:47:53.531082,1678,1782,1782,0
2026-09-14T05:47:53.551124,1725,1782,1782,0
2026-09-14T05:47:53.571180,1777,1782,1782,0
2026-09-14T05:47:53.591110,1911,1782,1782,0
2026-09-14T05:47:53.611129,1977,1783,1783,0
2026-09-14T05:47:53.632158,2064,1785,1785,0
2026-09-14T05:47:53.652158,2000,1786,1786,0
2026-09-14T05:47:53.672155,1902,1786,1786,0
2026-09-14T05:47:53.692143,1769,1786,1786,0
2026-09-14T05:47:53.712170,1766,1786,1786,0
2026-09-14T05:47:53.732154,1789,1786,1786,0
2026-09-14T05:47:53.752177,1808,1786,1786,0
2026-09-14T05:47:53.772161,1903,1787,2087,0
2026-09-14T05:47:53.793186,4095,1798,1798,0
2026-09-14T05:47:53.813150,4095,1810,1810,0
2026-09-14T05:47:53.833240,1863,1810,1810,0
2026-09-14T05:47:53.853350,2009,1811,1811,0
2026-09-14T05:47:53.873151,2013,1812,1812,0
2026-09-14T05:47:53.893173,1888,1813,1813,0
2026-09-14T05:47:53.913152,1984,1813,1813,0
2026-09-14T05:47:53.933112,2135,1815,1815,0
2026-09-14T05:47:53.964612,2166,1817,1817,0
2026-09-14T05:47:53.974337,2079,1818,1818,0
2026-09-14T05:47:53.994240,2239,1820,1820,0
2026-09-14T05:47:54.014157,2470,1823,1823,0
2026-09-14T05:47:54.034161,2545,1827,1827,0
2026-09-14T05:47:54.054157,2320,1830,1830,0
2026-09-14T05:47:54.074155,2046,1831,1831,0
2026-09-14T05:47:54.094169,1681,1830,1830,0
2026-09-14T05:47:54.115205,1599,1829,1829,0
2026-09-14T05:47:54.135179,1571,1827,1827,0
2026-09-14T05:47:54.155190,1535,1826,1826,0
2026-09-14T05:47:54.175173,1787,1826,1826,0
2026-09-14T05:47:54.195170,1631,1825,1825,0
2026-09-14T05:47:54.215175,1661,1824,1824,0
2026-09-14T05:47:54.235191,1660,1823,1823,0
2026-09-14T05:47:54.255239,1665,1822,1822,0
2026-09-14T05:47:54.275180,1762,1822,1822,0
2026-09-14T05:47:54.296185,1645,1821,1821,0
2026-09-14T05:47:54.316176,1595,1820,1820,0
2026-09-14T05:47:54.336064,1584,1819,1819,0
2026-09-14T05:47:54.356182,1584,1818,1818,0
2026-09-14T05:47:54.376173,1779,1817,1817,0
2026-09-14T05:47:54.396170,1664,1817,1817,0
2026-09-14T05:47:54.416190,1760,1816,1816,0
2026-09-14T05:47:54.436180,1821,1816,1816,0
2026-09-14T05:47:54.457219,1937,1817,2117,0
2026-09-14T05:47:54.477187,2041,1818,1818,0
2026-09-14T05:47:54.497180,1814,1818,1818,0
2026-09-14T05:47:54.517633,1648,1817,1817,0
2026-09-14T05:47:54.537219,1678,1817,1817,0
2026-09-14T05:47:54.557206,1679,1816,1816,0
2026-09-14T05:47:54.577201,1811,1816,1816,0
2026-09-14T05:47:54.597199,1790,1816,1816,0
2026-09-14T05:47:54.618232,2554,1819,1819,0
2026-09-14T05:47:54.638224,4095,1831,1831,0
2026-09-14T05:47:54.658253,1211,1828,1828,0
2026-09-14T05:47:54.678250,1951,1828,1828,0
2026-09-14T05:47:54.698230,1872,1829,1829,0
2026-09-14T05:47:54.718222,1881,1829,1829,0
2026-09-14T05:47:54.738252,1921,1829,1829,0
2026-09-14T05:47:54.758233,2013,1830,1830,0
2026-09-14T05:47:54.779260,2176,1832,1832,0
2026-09-14T05:47:54.799269,2346,1834,1834,0
2026-09-14T05:47:54.819263,2499,1838,1838,0
2026-09-14T05:47:54.939774,1693,1837,1837,0
2026-09-14T05:47:54.980261,1626,1836,1836,0
2026-09-14T05:47:55.000173,1749,1836,1836,0
2026-09-14T05:47:55.020320,1707,1835,1835,0
2026-09-14T05:47:55.040306,1712,1834,1834,0
2026-09-14T05:47:55.060301,1683,1834,1834,0
2026-09-14T05:47:55.080377,1781,1833,1833,0
2026-09-14T05:47:55.100334,1983,1834,1834,0
2026-09-14T05:47:55.121398,1776,1834,1834,0
2026-09-14T05:47:55.141370,1739,1833,1833,0
2026-09-14T05:47:55.161456,1744,1833,1833,0
2026-09-14T05:47:55.181395,1776,1833,1833,0
2026-09-14T05:47:55.201390,1927,1833,1833,0
2026-09-14T05:47:55.221379,1810,1833,1833,0
2026-09-14T05:47:55.241354,1828,1833,1833,0
2026-09-14T05:47:55.261388,1855,1833,1833,0
2026-09-14T05:47:55.282385,1915,1833,2133,0
2026-09-14T05:47:55.302341,2083,1835,1835,0
2026-09-14T05:47:55.322207,2112,1836,1836,0
2026-09-14T05:47:55.342386,2161,1838,1838,0
2026-09-14T05:47:55.362396,2208,1839,1839,0
2026-09-14T05:47:55.382405,2176,1841,1841,0
2026-09-14T05:47:55.402433,2172,1843,1843,0
2026-09-14T05:47:55.422393,1929,1843,1843,0
2026-09-14T05:47:55.443269,1972,1844,1844,0
2026-09-14T05:47:55.463270,1991,1845,1845,0
2026-09-14T05:47:55.483318,2047,1846,1846,0
2026-09-14T05:47:55.503279,2198,1847,1847,0
2026-09-14T05:47:55.523272,3919,1858,1858,0
2026-09-14T05:47:55.543264,4095,1869,1869,0
2026-09-14T05:47:55.563253,1417,1867,1867,0
2026-09-14T05:47:55.583261,2130,1868,1868,0
2026-09-14T05:47:55.604270,2282,1870,1870,0
2026-09-14T05:47:55.624291,2220,1872,1872,0
2026-09-14T05:47:55.644292,2259,1874,1874,0
2026-09-14T05:47:55.664273,2333,1876,1876,0
2026-09-14T05:47:55.684288,2443,1879,1879,0
2026-09-14T05:47:55.704437,2685,1883,1883,0
2026-09-14T05:47:55.724294,2829,1888,1888,0
2026-09-14T05:47:55.744264,3046,1893,1893,0
2026-09-14T05:47:55.765309,3231,1900,1900,0
2026-09-14T05:47:55.785319,3131,1906,1906,0
2026-09-14T05:47:55.805306,2687,1910,1910,0
2026-09-14T05:47:55.825300,2132,1911,1911,0
2026-09-14T05:47:55.845315,1839,1911,1911,0
2026-09-14T05:47:55.865310,1734,1910,1910,0
2026-09-14T05:47:55.885354,1721,1909,1909,0
2026-09-14T05:47:55.905325,1741,1908,1908,0
2026-09-14T05:47:55.926354,1803,1908,1908,0
2026-09-14T05:47:55.946331,1765,1907,1907,0
2026-09-14T05:47:55.977347,1663,1906,1906,0
2026-09-14T05:47:55.986331,1718,1905,1905,0
2026-09-14T05:47:56.006338,1706,1904,1904,0
2026-09-14T05:47:56.026331,1739,1903,1903,0
2026-09-14T05:47:56.046355,1677,1902,1902,0
2026-09-14T05:47:56.066366,1634,1900,1900,0
2026-09-14T05:47:56.086367,1655,1899,1899,0
2026-09-14T05:47:56.107354,1665,1898,1898,0
2026-09-14T05:47:56.127352,1770,1897,1897,0
2026-09-14T05:47:56.147346,1678,1896,1896,0
2026-09-14T05:47:56.167358,1664,1895,1895,0
2026-09-14T05:47:56.187346,1670,1894,1894,0
2026-09-14T05:47:56.207332,1663,1893,1893,0
2026-09-14T05:47:56.227320,1904,1893,1893,0
2026-09-14T05:47:56.247329,1878,1893,1893,0
2026-09-14T05:47:56.268330,1847,1893,1893,0
2026-09-14T05:47:56.288364,1791,1892,2192,0
2026-09-14T05:47:56.308364,1637,1891,1891,0
2026-09-14T05:47:56.328361,1662,1890,1890,0
2026-09-14T05:47:56.348366,1515,1888,1888,0
2026-09-14T05:47:56.368354,1524,1886,1886,0
2026-09-14T05:47:56.388332,1521,1884,1884,0
2026-09-14T05:47:56.408336,1510,1882,1882,0
2026-09-14T05:47:56.429374,3483,1890,1890,0
2026-09-14T05:47:56.449371,4095,1901,1901,0
2026-09-14T05:47:56.469393,1051,1897,1897,0
2026-09-14T05:47:56.489425,1566,1895,1895,0
2026-09-14T05:47:56.509399,1561,1894,1894,0
2026-09-14T05:47:56.529421,1740,1893,1893,0
2026-09-14T05:47:56.549407,1664,1892,1892,0
2026-09-14T05:47:56.569388,1729,1891,1891,0
2026-09-14T05:47:56.590502,1866,1891,1891,0
2026-09-14T05:47:56.610405,2018,1891,1891,0
2026-09-14T05:47:56.630407,2384,1894,1894,0
2026-09-14T05:47:56.650394,2486,1897,1897,0
2026-09-14T05:47:56.670410,2559,1900,1900,0
2026-09-14T05:47:56.690406,2485,1903,1903,0
2026-09-14T05:47:56.710438,2012,1904,1904,0
2026-09-14T05:47:56.730417,1648,1902,1902,0
2026-09-14T05:47:56.751463,1301,1899,1899,0
2026-09-14T05:47:56.771494,1197,1896,1896,0
2026-09-14T05:47:56.791437,1214,1892,1892,0
2026-09-14T05:47:56.811492,1232,1889,1889,0
2026-09-14T05:47:56.831490,1360,1887,1887,0
2026-09-14T05:47:56.952005,1299,1884,1884,0
2026-09-14T05:47:56.992515,1280,1881,1881,0
2026-09-14T05:47:57.012550,1295,1878,1878,0
2026-09-14T05:47:57.032516,1296,1875,1875,0
2026-09-14T05:47:57.052522,1341,1872,1872,0
2026-09-14T05:47:57.072539,1323,1869,1869,0
2026-09-14T05:47:57.093389,1378,1867,1867,0
2026-09-14T05:47:57.113407,1451,1865,1865,0
2026-09-14T05:47:57.133407,1594,1863,1863,0
2026-09-14T05:47:57.153390,2017,1864,1864,0
2026-09-14T05:47:57.173376,2021,1865,1865,0
2026-09-14T05:47:57.193405,1899,1865,1865,0
2026-09-14T05:47:57.213419,1425,1863,1863,0
2026-09-14T05:47:57.233579,1323,1860,1860,0
2026-09-14T05:47:57.254466,1437,1858,1858,0
2026-09-14T05:47:57.274441,1398,1856,1856,0
2026-09-14T05:47:57.294425,1439,1854,1854,0
2026-09-14T05:47:57.314377,1897,1854,1854,0
2026-09-14T05:47:57.334465,4095,1865,1865,0
2026-09-14T05:47:57.354430,1360,1863,1863,0
2026-09-14T05:47:57.374444,1626,1861,1861,0
2026-09-14T05:47:57.394431,1535,1860,1860,0
2026-09-14T05:47:57.414564,1604,1858,1858,0
2026-09-14T05:47:57.435480,1696,1858,1858,0
2026-09-14T05:47:57.455454,1918,1858,1858,0
2026-09-14T05:47:57.475461,1904,1858,1858,0
2026-09-14T05:47:57.495420,2059,1859,1859,0
2026-09-14T05:47:57.515452,2256,1861,1861,0
2026-09-14T05:47:57.535483,2497,1864,1864,0
2026-09-14T05:47:57.555542,2817,1869,1869,0
2026-09-14T05:47:57.575599,2746,1873,1873,0
2026-09-14T05:47:57.596554,2475,1876,1876,0
2026-09-14T05:47:57.616514,1929,1877,1877,0
2026-09-14T05:47:57.636560,1568,1875,1875,0
2026-09-14T05:47:57.656562,1595,1874,1874,0
2026-09-14T05:47:57.676543,1443,1872,1872,0
2026-09-14T05:47:57.696549,1456,1870,1870,0
2026-09-14T05:47:57.716515,1463,1868,1868,0
2026-09-14T05:47:57.736595,1488,1866,1866,0
2026-09-14T05:47:57.757540,1709,1865,1865,0
2026-09-14T05:47:57.777579,1557,1863,1863,0
2026-09-14T05:47:57.797585,1527,1862,1862,0
2026-09-14T05:47:57.817572,1535,1860,1860,0
2026-09-14T05:47:57.837595,1512,1858,1858,0
2026-09-14T05:47:57.857571,1681,1857,1857,0
2026-09-14T05:47:57.877567,1575,1856,1856,0
2026-09-14T05:47:57.897595,1569,1855,1855,0
2026-09-14T05:47:57.918413,1620,1853,1853,0
2026-09-14T05:47:57.938478,1795,1853,1853,0
2026-09-14T05:47:57.958501,1986,1854,1854,0
2026-09-14T05:47:57.989736,1727,1853,1853,0
2026-09-14T05:47:57.998378,1790,1853,1853,0
2026-09-14T05:47:58.018419,1615,1852,1852,0
2026-09-14T05:47:58.038466,1535,1850,1850,0
2026-09-14T05:47:58.058441,1622,1849,1849,0
2026-09-14T05:47:58.079513,1678,1848,1848,0
2026-09-14T05:47:58.099468,1671,1847,1847,0
2026-09-14T05:47:58.119469,1985,1848,1848,0
2026-09-14T05:47:58.139522,4095,1859,1859,0
2026-09-14T05:47:58.159491,1866,1859,1859,0
2026-09-14T05:47:58.179458,1883,1859,1859,0
2026-09-14T05:47:58.199500,1746,1859,2159,0
2026-09-14T05:47:58.219614,1780,1858,1858,0
2026-09-14T05:47:58.239544,1838,1858,1858,0
2026-09-14T05:47:58.260535,1945,1859,1859,0
2026-09-14T05:47:58.280550,2109,1860,1860,0
2026-09-14T05:47:58.300474,2190,1861,1861,0
2026-09-14T05:47:58.320522,2374,1864,1864,0
2026-09-14T05:47:58.340559,2618,1868,1868,0
2026-09-14T05:47:58.360496,2782,1872,1872,0
2026-09-14T05:47:58.380481,2871,1877,1877,0
2026-09-14T05:47:58.400482,2512,1880,1880,0
2026-09-14T05:47:58.421585,1973,1881,1881,0
2026-09-14T05:47:58.441583,1642,1880,1880,0
2026-09-14T05:47:58.461544,1520,1878,1878,0
2026-09-14T05:47:58.481606,1591,1877,1877,0
2026-09-14T05:47:58.501631,1555,1875,1875,0
2026-09-14T05:47:58.521602,1514,1873,1873,0
2026-09-14T05:47:58.541647,1509,1871,1871,0
2026-09-14T05:47:58.561605,1500,1869,1869,0
2026-09-14T05:47:58.582654,1596,1868,1868,0
2026-09-14T05:47:58.602641,1519,1866,1866,0
2026-09-14T05:47:58.622645,1493,1864,1864,0
2026-09-14T05:47:58.642613,1523,1863,1863,0
2026-09-14T05:47:58.662633,1535,1861,1861,0
2026-09-14T05:47:58.682639,1732,1860,1860,0
2026-09-14T05:47:58.702603,1616,1859,1859,0
2026-09-14T05:47:58.722635,1621,1858,1858,0
2026-09-14T05:47:58.743685,1671,1857,1857,0
2026-09-14T05:47:58.763643,1786,1857,1857,0
2026-09-14T05:47:58.783618,2097,1858,1858,0
2026-09-14T05:47:58.803654,2005,1859,1859,0
2026-09-14T05:47:58.823635,1942,1859,1859,0
2026-09-14T05:47:58.843629,1766,1859,1859,0
2026-09-14T05:47:58.964105,3343,1866,1866,0
2026-09-14T05:47:59.004692,1356,1863,1863,0
2026-09-14T05:47:59.024575,1820,1863,1863,0
2026-09-14T05:47:59.044526,1834,1863,1863,0
2026-09-14T05:47:59.064696,1887,1863,1863,0
2026-09-14T05:47:59.085521,2112,1864,2164,0
2026-09-14T05:47:59.105552,2103,1866,1866,0
2026-09-14T05:47:59.125512,2207,1867,1867,0
2026-09-14T05:47:59.145529,2354,1870,1870,0
2026-09-14T05:47:59.165590,2559,1873,1873,0
2026-09-14T05:47:59.185672,2896,1878,1878,0
2026-09-14T05:47:59.205534,2893,1883,1883,0
2026-09-14T05:47:59.225513,2813,1888,1888,0
2026-09-14T05:47:59.246557,2383,1891,1891,0
2026-09-14T05:47:59.266532,1937,1891,1891,0
2026-09-14T05:47:59.286580,1761,1890,1890,0
2026-09-14T05:47:59.306545,1684,1889,1889,0
2026-09-14T05:47:59.326549,1649,1888,1888,0
2026-09-14T05:47:59.346591,1638,1887,1887,0
2026-09-14T05:47:59.366591,1651,1885,1885,0
2026-09-14T05:47:59.386588,1659,1884,1884,0
2026-09-14T05:47:59.407624,1733,1884,1884,0
2026-09-14T05:47:59.427609,1685,1883,1883,0
2026-09-14T05:47:59.447611,1681,1882,1882,0
2026-09-14T05:47:59.467626,1667,1880,1880,0
2026-09-14T05:47:59.487623,1668,1879,1879,0
2026-09-14T05:47:59.507671,1757,1879,1879,0
2026-09-14T05:47:59.527668,1717,1878,1878,0
2026-09-14T05:47:59.547729,1725,1877,1877,0
2026-09-14T05:47:59.568670,1791,1877,1877,0
2026-09-14T05:47:59.588661,1808,1876,1876,0
2026-09-14T05:47:59.608649,1894,1876,1876,0
2026-09-14T05:47:59.628693,1824,1876,1876,0
2026-09-14T05:47:59.648667,1824,1876,1876,0
2026-09-14T05:47:59.668690,1975,1876,2176,0
2026-09-14T05:47:59.688666,2047,1877,1877,0
2026-09-14T05:47:59.708679,2207,1879,1879,0
2026-09-14T05:47:59.729714,2121,1880,1880,0
2026-09-14T05:47:59.749696,1921,1880,1880,0
2026-09-14T05:47:59.769720,1801,1880,1880,0
2026-09-14T05:47:59.789700,1807,1880,1880,0
2026-09-14T05:47:59.809715,1938,1880,1880,0
2026-09-14T05:47:59.829693,1873,1880,1880,0
2026-09-14T05:47:59.849706,1866,1880,1880,0
2026-09-14T05:47:59.869737,2806,1884,1884,0
2026-09-14T05:47:59.889709,4095,1895,1895,0
2026-09-14T05:47:59.910564,1429,1893,1893,0
2026-09-14T05:47:59.930641,1986,1894,1894,0
2026-09-14T05:47:59.950585,1943,1894,1894,0
2026-09-14T05:47:59.970597,1942,1894,1894,0
2026-09-14T05:48:00.001824,1789,1894,1894,0
2026-09-14T05:48:00.010588,2224,1895,1895,0
2026-09-14T05:48:00.030591,2178,1897,1897,0
2026-09-14T05:48:00.050580,2309,1899,1899,0
2026-09-14T05:48:00.071628,2523,1902,1902,0
2026-09-14T05:48:00.091626,2735,1906,1906,0
2026-09-14T05:48:00.111646,3055,1912,1912,0
2026-09-14T05:48:00.131625,2847,1916,1916,0
2026-09-14T05:48:00.151990,2480,1919,1919,0
2026-09-14T05:48:00.171637,2009,1920,1920,0
2026-09-14T05:48:00.191593,1728,1919,1919,0
2026-09-14T05:48:00.211640,1755,1918,1918,0
2026-09-14T05:48:00.232653,1639,1916,1916,0
2026-09-14T05:48:00.252640,1657,1915,1915,0
2026-09-14T05:48:00.272603,1664,1914,1914,0
2026-09-14T05:48:00.292617,1621,1912,1912,0
2026-09-14T05:48:00.312633,1689,1911,1911,0
2026-09-14T05:48:00.332628,1595,1910,1910,0
2026-09-14T05:48:00.352657,1565,1908,1908,0
2026-09-14T05:48:00.372666,1603,1906,1906,0
2026-09-14T05:48:00.392653,1600,1905,1905,0
2026-09-14T05:48:00.413686,1712,1904,1904,0
2026-09-14T05:48:00.433625,1690,1903,1903,0
2026-09-14T05:48:00.453658,1696,1902,1902,0
2026-09-14T05:48:00.473634,1702,1901,1901,0
2026-09-14T05:48:00.493671,1731,1900,1900,0
2026-09-14T05:48:00.513686,1824,1900,1900,0
2026-09-14T05:48:00.533658,1977,1900,1900,0
2026-09-14T05:48:00.553645,2059,1901,1901,0
2026-09-14T05:48:00.574748,2029,1901,1901,0
2026-09-14T05:48:00.594675,1870,1901,1901,0
2026-09-14T05:48:00.614735,1739,1900,1900,0
2026-09-14T05:48:00.634682,1802,1900,1900,0
2026-09-14T05:48:00.654689,1777,1899,1899,0
2026-09-14T05:48:00.674678,1823,1899,1899,0
2026-09-14T05:48:00.694673,1859,1899,1899,0
2026-09-14T05:48:00.714821,2394,1901,1901,0
2026-09-14T05:48:00.735644,4095,1912,1912,0
2026-09-14T05:48:00.755641,1218,1909,1909,0
2026-09-14T05:48:00.775659,2026,1909,1909,0
2026-09-14T05:48:00.795655,1971,1910,1910,0
2026-09-14T05:48:00.815628,2018,1910,1910,0
2026-09-14T05:48:00.835611,2192,1912,1912,0
2026-09-14T05:48:00.855625,2214,1913,1913,0
2026-09-14T05:48:00.976250,3059,1919,1919,0
2026-09-14T05:48:01.016782,2249,1920,1920,0
2026-09-14T05:48:01.036854,2125,1921,1921,0
2026-09-14T05:48:01.056764,1889,1921,1921,0
2026-09-14T05:48:01.077668,1872,1921,1921,0
2026-09-14T05:48:01.097636,1899,1921,1921,0
2026-09-14T05:48:01.117664,1937,1921,1921,0
2026-09-14T05:48:01.137836,2125,1922,2222,0
2026-09-14T05:48:01.157794,2003,1922,1922,0
2026-09-14T05:48:01.177770,2000,1923,1923,0
2026-09-14T05:48:01.197810,1998,1923,1923,0
2026-09-14T05:48:01.217799,2025,1924,1924,0
2026-09-14T05:48:01.238665,2187,1925,1925,0
2026-09-14T05:48:01.258638,2035,1926,1926,0
2026-09-14T05:48:01.278706,2046,1926,1926,0
2026-09-14T05:48:01.298623,2055,1927,1927,0
2026-09-14T05:48:01.318882,2202,1928,1928,0
2026-09-14T05:48:01.338667,2417,1931,1931,0
2026-09-14T05:48:01.358708,2320,1933,1933,0
2026-09-14T05:48:01.378662,2246,1934,1934,0
2026-09-14T05:48:01.399697,2022,1935,1935,0
2026-09-14T05:48:01.419687,1974,1935,1935,0
2026-09-14T05:48:01.439700,2100,1936,1936,0
2026-09-14T05:48:01.459695,2019,1936,1936,0
2026-09-14T05:48:01.479709,2058,1937,1937,0
2026-09-14T05:48:01.499702,2022,1937,1937,0
2026-09-14T05:48:01.519680,4095,1948,1948,0
2026-09-14T05:48:01.539864,4095,1959,1959,0
2026-09-14T05:48:01.559918,1765,1958,1958,0
2026-09-14T05:48:01.580726,2041,1958,1958,0
2026-09-14T05:48:01.600684,2074,1959,1959,0
2026-09-14T05:48:01.620728,2121,1959,1959,0
2026-09-14T05:48:01.640723,2224,1961,1961,0
2026-09-14T05:48:01.660730,2320,1962,1962,0
2026-09-14T05:48:01.680673,2398,1965,1965,0
2026-09-14T05:48:01.700686,2559,1968,1968,0
2026-09-14T05:48:01.720733,2785,1972,1972,0
2026-09-14T05:48:01.741738,2992,1977,1977,0
2026-09-14T05:48:01.761759,3061,1982,1982,0
2026-09-14T05:48:01.781721,2819,1986,1986,0
2026-09-14T05:48:01.801728,2330,1988,1988,0
2026-09-14T05:48:01.821740,1939,1988,1988,0
2026-09-14T05:48:01.841758,1774,1987,1987,0
2026-09-14T05:48:01.861761,1841,1986,1986,0
2026-09-14T05:48:01.881722,1828,1985,1985,0
2026-09-14T05:48:01.902838,1830,1985,1985,0
2026-09-14T05:48:01.922857,1834,1984,1984,0
2026-09-14T05:48:01.942811,1850,1983,1983,0
2026-09-14T05:48:01.962899,1948,1983,1983,0
2026-09-14T05:48:01.982728,1865,1982,1982,0
2026-09-14T05:48:02.013843,1619,1981,1981,0
2026-09-14T05:48:02.022855,1847,1980,1980,0
2026-09-14T05:48:02.042717,1853,1979,1979,0
2026-09-14T05:48:02.063869,1968,1979,1979,0
2026-09-14T05:48:02.083816,1799,1978,2278,0
2026-09-14T05:48:02.103859,1810,1977,1977,0
2026-09-14T05:48:02.123751,1678,1976,1976,0
2026-09-14T05:48:02.143754,1807,1975,1975,0
2026-09-14T05:48:02.163777,2047,1975,1975,0
2026-09-14T05:48:02.183738,2031,1976,1976,0
2026-09-14T05:48:02.203781,1981,1976,1976,0
2026-09-14T05:48:02.223770,1844,1975,1975,0
2026-09-14T05:48:02.244788,1680,1974,1974,0
2026-09-14T05:48:02.264908,1858,1973,1973,0
2026-09-14T05:48:02.284898,1758,1972,1972,0
2026-09-14T05:48:02.304885,1789,1971,1971,0
2026-09-14T05:48:02.324741,1808,1970,1970,0
2026-09-14T05:48:02.344787,2704,1974,1974,0
2026-09-14T05:48:02.364828,4095,1984,1984,0
2026-09-14T05:48:02.384744,1374,1981,1981,0
2026-09-14T05:48:02.405755,1950,1981,1981,0
2026-09-14T05:48:02.425812,1908,1981,1981,0
2026-09-14T05:48:02.445811,1971,1981,1981,0
2026-09-14T05:48:02.465816,2178,1982,2282,0
2026-09-14T05:48:02.485872,2109,1982,1982,0
2026-09-14T05:48:02.506564,2223,1984,1984,0
2026-09-14T05:48:02.525754,2352,1985,1985,0
2026-09-14T05:48:02.545674,2554,1988,1988,0
2026-09-14T05:48:02.566824,2895,1993,1993,0
2026-09-14T05:48:02.586841,2868,1997,1997,0
2026-09-14T05:48:02.606880,2807,2001,2001,0
2026-09-14T05:48:02.626827,2465,2004,2004,0
2026-09-14T05:48:02.646808,1984,2003,2003,0
2026-09-14T05:48:02.666769,1789,2002,2002,0
2026-09-14T05:48:02.686813,1647,2001,2001,0
2026-09-14T05:48:02.706810,1617,1999,1999,0
2026-09-14T05:48:02.727896,1598,1997,1997,0
2026-09-14T05:48:02.747905,1589,1995,1995,0
2026-09-14T05:48:02.767853,1625,1993,1993,0
2026-09-14T05:48:02.787914,1642,1991,1991,0
2026-09-14T05:48:02.807902,1589,1989,1989,0
2026-09-14T05:48:02.827846,1562,1987,1987,0
2026-09-14T05:48:02.847818,1535,1985,1985,0
2026-09-14T05:48:02.867788,1560,1983,1983,0
2026-09-14T05:48:02.988391,1616,1981,1981,0
2026-09-14T05:48:03.028836,1777,1980,1980,0
2026-09-14T05:48:03.048854,1806,1979,1979,0
2026-09-14T05:48:03.070000,1737,1978,1978,0
2026-09-14T05:48:03.089804,1647,1976,1976,0
2026-09-14T05:48:03.109828,1453,1973,1973,0
2026-09-14T05:48:03.129856,1472,1971,1971,0
2026-09-14T05:48:03.149836,1475,1968,1968,0
2026-09-14T05:48:03.169857,1504,1966,1966,0
2026-09-14T05:48:03.189842,1593,1964,1964,0
2026-09-14T05:48:03.209831,2944,1969,1969,0
2026-09-14T05:48:03.230829,4095,1980,1980,0
2026-09-14T05:48:04.740093,2181,1981,1981,0
2026-09-14T05:48:04.771533,1933,1980,1980,0
2026-09-14T05:48:04.779965,1995,1980,1980,0
2026-09-14T05:48:04.800020,1566,1978,1978,0
2026-09-14T05:48:04.820028,1632,1977,1977,0
2026-09-14T05:48:04.840030,1535,1974,1974,0
2026-09-14T05:48:04.860029,1563,1972,1972,0
2026-09-14T05:48:04.881053,1519,1970,1970,0
2026-09-14T05:48:05.001632,1744,1969,1969,0
2026-09-14T05:48:05.020984,1886,1969,1969,0
2026-09-14T05:48:05.042023,2300,1970,1970,0
2026-09-14T05:48:05.062034,2426,1972,1972,0
2026-09-14T05:48:05.082075,2595,1976,1976,0
2026-09-14T05:48:05.101983,2449,1978,1978,0
2026-09-14T05:48:05.121919,2608,1981,1981,0
2026-09-14T05:48:05.141970,2704,1985,1985,0
2026-09-14T05:48:05.161984,2582,1988,1988,0
2026-09-14T05:48:05.181945,2174,1989,1989,0
2026-09-14T05:48:05.202957,1695,1987,1987,0
2026-09-14T05:48:05.222963,1483,1985,1985,0
2026-09-14T05:48:05.242933,1513,1982,1982,0
2026-09-14T05:48:05.263017,1486,1980,1980,0
2026-09-14T05:48:05.282899,1510,1977,1977,0
2026-09-14T05:48:05.303026,1530,1975,1975,0
2026-09-14T05:48:05.323037,1568,1973,1973,0
2026-09-14T05:48:05.343127,1655,1972,1972,0
2026-09-14T05:48:05.363978,1584,1970,1970,0
2026-09-14T05:48:05.384233,1585,1968,1968,0
2026-09-14T05:48:05.404152,1585,1966,1966,0
2026-09-14T05:48:05.424135,1594,1964,1964,0
2026-09-14T05:48:05.444160,1699,1963,1963,0
2026-09-14T05:48:05.464121,1634,1961,1961,0
2026-09-14T05:48:05.484064,1643,1959,1959,0
2026-09-14T05:48:05.504110,1662,1958,1958,0
2026-09-14T05:48:05.524136,1693,1957,1957,0
2026-09-14T05:48:05.545131,1813,1956,1956,0
2026-09-14T05:48:05.565097,1717,1955,1955,0
2026-09-14T05:48:05.585113,1738,1954,1954,0
2026-09-14T05:48:05.605134,1759,1953,1953,0
2026-09-14T05:48:05.625124,1773,1952,1952,0
2026-09-14T05:48:05.645097,2083,1952,1952,0
2026-09-14T05:48:05.665062,2001,1953,1953,0
2026-09-14T05:48:05.685061,2022,1953,1953,0
2026-09-14T05:48:05.706077,1967,1953,1953,0
2026-09-14T05:48:05.726096,1802,1952,2252,0
2026-09-14T05:48:05.745996,1845,1952,1952,0
2026-09-14T05:48:05.777169,1627,1950,1950,0
2026-09-14T05:48:05.786093,1714,1949,1949,0
2026-09-14T05:48:05.806114,1749,1948,1948,0
2026-09-14T05:48:05.826100,1768,1947,1947,0
2026-09-14T05:48:05.846082,2798,1951,1951,0
2026-09-14T05:48:05.867104,4095,1962,1962,0
2026-09-14T05:48:05.887107,1104,1958,1958,0
2026-09-14T05:48:05.907093,1851,1957,1957,0
2026-09-14T05:48:05.927078,1803,1956,1956,0
2026-09-14T05:48:05.947072,2005,1957,1957,0
2026-09-14T05:48:05.967139,1933,1956,1956,0
2026-09-14T05:48:05.987115,2000,1957,1957,0
2026-09-14T05:48:06.007105,2112,1957,1957,0
2026-09-14T05:48:06.028092,2227,1959,1959,0
2026-09-14T05:48:06.048071,2559,1962,1962,0
2026-09-14T05:48:06.068107,2689,1965,1965,0
2026-09-14T05:48:06.088138,2768,1969,1969,0
2026-09-14T05:48:06.108076,2762,1973,1973,0
2026-09-14T05:48:06.128111,2449,1976,1976,0
2026-09-14T05:48:06.148105,1992,1976,1976,0
2026-09-14T05:48:06.168116,1676,1974,2274,0
2026-09-14T05:48:06.189118,1502,1972,1972,0
2026-09-14T05:48:06.209081,1498,1970,1970,0
2026-09-14T05:48:06.229106,1531,1967,1967,0
2026-09-14T05:48:06.249108,1566,1965,1965,0
2026-09-14T05:48:06.269132,1603,1964,1964,0
2026-09-14T05:48:06.289122,1587,1962,1962,0
2026-09-14T05:48:06.309113,1584,1960,1960,0
2026-09-14T05:48:06.329057,1593,1958,1958,0
2026-09-14T05:48:06.349086,1595,1956,1956,0
2026-09-14T05:48:06.370129,1676,1955,1955,0
2026-09-14T05:48:06.390138,1590,1953,1953,0
2026-09-14T05:48:06.410133,1605,1951,1951,0
2026-09-14T05:48:06.430144,1605,1949,1949,0
2026-09-14T05:48:06.450118,1613,1948,1948,0
2026-09-14T05:48:06.470133,1714,1947,1947,0
2026-09-14T05:48:06.490150,1679,1945,1945,0
2026-09-14T05:48:06.510144,1689,1944,1944,0
2026-09-14T05:48:06.531166,1705,1943,1943,0
2026-09-14T05:48:06.551098,1805,1942,1942,0
2026-09-14T05:48:06.571108,2021,1942,1942,0
2026-09-14T05:48:06.591136,1922,1942,1942,0
2026-09-14T05:48:06.611148,1781,1942,2242,0
2026-09-14T05:48:06.631202,1588,1940,1940,0
2026-09-14T05:48:06.651096,1635,1938,1938,0
2026-09-14T05:48:06.671169,1755,1937,1937,0
2026-09-14T05:48:06.692151,1665,1936,1936,0
2026-09-14T05:48:06.712138,1676,1935,1935,0
2026-09-14T05:48:06.732140,1791,1934,1934,0
2026-09-14T05:48:06.752053,4095,1945,1945,0
2026-09-14T05:48:06.783386,839,1939,1939,0
2026-09-14T05:48:06.792379,1677,1938,1938,0
2026-09-14T05:48:06.812185,1742,1937,1937,0
2026-09-14T05:48:06.832122,1780,1936,1936,0
2026-09-14T05:48:06.853132,1825,1936,1936,0
2026-09-14T05:48:06.873183,2099,1936,1936,0
2026-09-14T05:48:06.893156,2023,1937,1937,0
2026-09-14T05:48:07.013649,2494,1940,1940,0
2026-09-14T05:48:07.034184,1981,1940,1940,0
2026-09-14T05:48:07.054156,1611,1938,1938,0
2026-09-14T05:48:07.074250,1621,1937,1937,0
2026-09-14T05:48:07.094188,1447,1934,1934,0
2026-09-14T05:48:07.114214,1457,1932,1932,0
2026-09-14T05:48:07.134159,1489,1930,1930,0
2026-09-14T05:48:07.154174,1525,1928,1928,0
2026-09-14T05:48:07.174143,1655,1926,1926,0
2026-09-14T05:48:07.195212,1555,1924,1924,0
2026-09-14T05:48:07.215186,1566,1922,1922,0
2026-09-14T05:48:07.235185,1567,1921,1921,0
2026-09-14T05:48:07.255217,1535,1919,1919,0
2026-09-14T05:48:07.275200,1625,1917,1917,0
2026-09-14T05:48:07.295240,1599,1916,1916,0
2026-09-14T05:48:07.315204,1609,1914,1914,0
2026-09-14T05:48:07.336060,1616,1913,1913,0
2026-09-14T05:48:07.356227,1611,1911,1911,0
2026-09-14T05:48:07.376260,1659,1910,1910,0
2026-09-14T05:48:07.396239,1731,1909,1909,0
2026-09-14T05:48:07.416341,1733,1908,1908,0
2026-09-14T05:48:07.436259,1862,1908,1908,0
2026-09-14T05:48:07.456270,1952,1908,1908,0
2026-09-14T05:48:07.476279,1906,1908,1908,0
2026-09-14T05:48:07.496281,1860,1908,1908,0
2026-09-14T05:48:07.517082,1630,1906,2206,0
2026-09-14T05:48:07.537120,1608,1905,1905,0
2026-09-14T05:48:07.557127,1634,1904,1904,0
2026-09-14T05:48:07.577319,1651,1902,1902,0
2026-09-14T05:48:07.597131,1763,1902,1902,0
2026-09-14T05:48:07.617166,1783,1901,1901,0
2026-09-14T05:48:07.637178,4095,1912,1912,0
2026-09-14T05:48:07.657138,3873,1922,1922,0
2026-09-14T05:48:07.678344,1729,1921,1921,0
2026-09-14T05:48:07.698228,1797,1920,1920,0
2026-09-14T05:48:07.718156,1762,1919,1919,0
2026-09-14T05:48:07.738221,1825,1919,1919,0
2026-09-14T05:48:07.758173,1895,1919,1919,0
2026-09-14T05:48:07.789208,2106,1920,1920,0
2026-09-14T05:48:07.798232,2210,1921,1921,0
2026-09-14T05:48:07.818208,2303,1923,1923,0
2026-09-14T05:48:07.839246,2490,1926,1926,0
2026-09-14T05:48:07.859216,2701,1930,1930,0
2026-09-14T05:48:07.879231,2754,1934,1934,0
2026-09-14T05:48:07.899199,2718,1938,1938,0
2026-09-14T05:48:07.919234,2093,1939,1939,0
2026-09-14T05:48:07.939211,1667,1937,1937,0
2026-09-14T05:48:07.959142,1492,1935,1935,0
2026-09-14T05:48:07.979246,1467,1933,1933,0
2026-09-14T05:48:08.000217,1600,1931,1931,0
2026-09-14T05:48:08.020258,1501,1929,1929,0
2026-09-14T05:48:08.040282,1514,1927,1927,0
2026-09-14T05:48:08.060214,1517,1925,1925,0
2026-09-14T05:48:08.080241,1521,1923,1923,0
2026-09-14T05:48:08.100221,1694,1922,1922,0
2026-09-14T05:48:08.120245,1535,1920,1920,0
2026-09-14T05:48:08.140260,1535,1918,1918,0
2026-09-14T05:48:08.160201,1535,1916,1916,0
2026-09-14T05:48:08.181221,1525,1914,1914,0
2026-09-14T05:48:08.201230,1697,1913,1913,0
2026-09-14T05:48:08.221260,1577,1911,1911,0
2026-09-14T05:48:08.241248,1573,1909,1909,0
2026-09-14T05:48:08.261296,1584,1908,1908,0
2026-09-14T05:48:08.281261,1611,1906,1906,0
2026-09-14T05:48:08.301273,1744,1905,1905,0
2026-09-14T05:48:08.322133,1711,1905,1905,0
2026-09-14T05:48:08.342332,1648,1903,1903,0
2026-09-14T05:48:08.362296,1680,1902,1902,0
2026-09-14T05:48:08.382303,1808,1902,1902,0
2026-09-14T05:48:08.402295,2034,1902,1902,0
2026-09-14T05:48:08.422270,2000,1903,1903,0
2026-09-14T05:48:08.442291,1886,1903,1903,0
2026-09-14T05:48:08.462292,1789,1902,2202,0
2026-09-14T05:48:08.482260,1563,1900,1900,0
2026-09-14T05:48:08.503329,1647,1899,1899,0
2026-09-14T05:48:08.523428,1744,1898,1898,0
2026-09-14T05:48:08.543358,1746,1898,1898,0
2026-09-14T05:48:08.563355,1779,1897,1897,0
2026-09-14T05:48:08.583352,2108,1898,1898,0
2026-09-14T05:48:08.603337,4095,1909,1909,0
2026-09-14T05:48:08.623383,2147,1910,1910,0
2026-09-14T05:48:08.643358,1970,1911,1911,0
2026-09-14T05:48:08.664329,1856,1910,1910,0
2026-09-14T05:48:08.684241,1889,1910,1910,0
2026-09-14T05:48:08.705301,1867,1910,1910,0
2026-09-14T05:48:08.724275,2011,1910,1910,0
2026-09-14T05:48:08.744283,2019,1911,1911,0
2026-09-14T05:48:08.764305,2128,1912,1912,0
2026-09-14T05:48:08.795292,2385,1914,1914,0
2026-09-14T05:48:08.804251,2491,1917,1917,0
2026-09-14T05:48:08.825291,2623,1921,1921,0
2026-09-14T05:48:08.845299,2531,1924,1924,0
2026-09-14T05:48:08.865256,2295,1926,1926,0
2026-09-14T05:48:08.885287,1818,1925,1925,0
2026-09-14T05:48:08.905285,1458,1923,1923,0
2026-09-14T05:48:09.025769,1572,1921,1921,0
2026-09-14T05:48:09.046288,1443,1919,1919,0
2026-09-14T05:48:09.066293,1459,1916,1916,0
2026-09-14T05:48:09.086314,1441,1914,1914,0
2026-09-14T05:48:09.106343,1453,1912,1912,0
2026-09-14T05:48:09.126276,1613,1910,1910,0
2026-09-14T05:48:09.146295,1488,1908,1908,0
2026-09-14T05:48:09.167309,1473,1906,1906,0
2026-09-14T05:48:09.187305,1486,1904,1904,0
2026-09-14T05:48:09.207350,1501,1902,1902,0
2026-09-14T05:48:09.227317,1715,1901,1901,0
2026-09-14T05:48:09.247410,1570,1899,1899,0
2026-09-14T05:48:09.267343,1593,1898,1898,0
2026-09-14T05:48:09.287348,1617,1896,1896,0
2026-09-14T05:48:09.307363,1642,1895,1895,0
2026-09-14T05:48:09.327389,1842,1895,1895,0
2026-09-14T05:48:09.348566,1840,1894,1894,0
2026-09-14T05:48:09.368391,1923,1895,1895,0
2026-09-14T05:48:09.388443,1879,1895,1895,0
2026-09-14T05:48:09.408447,1805,1894,2194,0
2026-09-14T05:48:09.428438,1807,1894,1894,0
2026-09-14T05:48:09.448682,1639,1892,1892,0
2026-09-14T05:48:09.468334,1647,1891,1891,0
2026-09-14T05:48:09.488277,1667,1890,1890,0
2026-09-14T05:48:09.509328,1698,1889,1889,0
2026-09-14T05:48:09.529341,1839,1889,1889,0
2026-09-14T05:48:09.549296,4095,1900,1900,0
2026-09-14T05:48:09.569342,4095,1911,1911,0
2026-09-14T05:48:09.589333,1651,1909,1909,0
2026-09-14T05:48:09.609445,1854,1909,1909,0
2026-09-14T05:48:09.629350,1925,1909,1909,0
2026-09-14T05:48:09.649317,2018,1910,1910,0
2026-09-14T05:48:09.670320,2067,1911,1911,0
2026-09-14T05:48:09.690352,2157,1912,1912,0
2026-09-14T05:48:09.710334,2317,1914,1914,0
2026-09-14T05:48:09.730366,2527,1917,1917,0
2026-09-14T05:48:09.750316,2832,1921,1921,0
2026-09-14T05:48:09.770371,3087,1927,1927,0
2026-09-14T05:48:09.801633,3301,1934,1934,0
2026-09-14T05:48:09.810348,3136,1940,1940,0
2026-09-14T05:48:09.830368,2685,1944,1944,0
2026-09-14T05:48:09.851365,2281,1946,1946,0
2026-09-14T05:48:09.871370,2079,1946,1946,0
2026-09-14T05:48:09.891416,2057,1947,1947,0
2026-09-14T05:48:09.911386,2131,1948,1948,0
2026-09-14T05:48:09.931413,2192,1949,1949,0
2026-09-14T05:48:09.951363,2354,1951,1951,0
2026-09-14T05:48:09.971350,2368,1953,1953,0
2026-09-14T05:48:09.991351,2425,1955,1955,0
2026-09-14T05:48:10.012495,2445,1958,1958,0
2026-09-14T05:48:10.032440,2510,1961,1961,0
2026-09-14T05:48:10.052430,2688,1964,1964,0
2026-09-14T05:48:10.072397,2640,1968,1968,0
2026-09-14T05:48:10.092367,2675,1971,1971,0
2026-09-14T05:48:10.112460,2749,1975,1975,0
2026-09-14T05:48:10.132416,2809,1979,1979,0
2026-09-14T05:48:10.152395,2964,1984,1984,0
2026-09-14T05:48:10.173455,2870,1989,1989,0
2026-09-14T05:48:10.193441,2887,1993,1993,0
2026-09-14T05:48:10.213467,2905,1998,1998,0
2026-09-14T05:48:10.233470,2935,2002,2002,0
2026-09-14T05:48:10.253446,3114,2008,2008,0
2026-09-14T05:48:10.273323,2983,2013,2013,0
2026-09-14T05:48:10.293381,3116,2018,2018,0
2026-09-14T05:48:10.313362,3182,2024,2024,0
2026-09-14T05:48:10.333299,3235,2030,2030,0
2026-09-14T05:48:10.354400,3455,2037,2037,0
2026-09-14T05:48:10.374386,2943,2042,2042,0
2026-09-14T05:48:10.394449,2760,2045,2045,0
2026-09-14T05:48:10.414370,2681,2049,2049,0
2026-09-14T05:48:10.434341,2727,2052,2052,0
2026-09-14T05:48:10.454407,2720,2055,2055,0
2026-09-14T05:48:10.474395,2557,2058,2058,0
2026-09-14T05:48:10.494381,3472,2065,2065,0
2026-09-14T05:48:10.515362,4095,2075,2075,0
2026-09-14T05:48:10.535375,2590,2078,2078,0
2026-09-14T05:48:10.555384,2592,2080,2080,0
2026-09-14T05:48:10.575396,2413,2082,2082,0
2026-09-14T05:48:10.595409,2330,2083,2083,0
2026-09-14T05:48:10.615367,2359,2084,2084,0
2026-09-14T05:48:10.635367,2379,2086,2086,0
2026-09-14T05:48:10.655467,2503,2088,2088,0
2026-09-14T05:48:10.676408,2445,2090,2090,0
2026-09-14T05:48:10.696423,2593,2092,2092,0
2026-09-14T05:48:10.716424,2778,2096,2096,0
2026-09-14T05:48:10.736426,2851,2099,2099,0
2026-09-14T05:48:10.756424,2863,2103,2103,0
2026-09-14T05:48:10.776389,2441,2105,2105,0
2026-09-14T05:48:10.807622,1711,2103,2103,0
2026-09-14T05:48:10.816428,1418,2100,2100,0
2026-09-14T05:48:10.836449,1285,2095,2095,0
2026-09-14T05:48:10.857482,1231,2091,2091,0
2026-09-14T05:48:10.877471,1239,2087,2087,0
2026-09-14T05:48:10.897450,1153,2082,2082,0
2026-09-14T05:48:10.917441,1130,2077,2077,0
2026-09-14T05:48:11.038027,1009,2072,2072,0
2026-09-14T05:48:11.058354,899,2066,2066,0
2026-09-14T05:48:11.078330,959,2061,2061,0
2026-09-14T05:48:11.098353,913,2055,2055,0
2026-09-14T05:48:11.118352,915,2049,2049,0
2026-09-14T05:48:11.138553,1131,2045,2045,0
2026-09-14T05:48:11.158345,797,2038,2038,0
2026-09-14T05:48:11.179438,993,2033,2033,0
2026-09-14T05:48:11.199453,969,2028,2028,0
2026-09-14T05:48:11.219441,971,2023,2023,0
2026-09-14T05:48:11.239437,982,2017,2017,0
2026-09-14T05:48:11.259452,1085,2013,2013,0
2026-09-14T05:48:11.279444,1269,2009,2009,0
2026-09-14T05:48:11.299454,1212,2005,2005,0
2026-09-14T05:48:11.319317,1167,2001,2001,0
2026-09-14T05:48:11.340436,976,1996,1996,0
2026-09-14T05:48:11.360413,763,1990,1990,0
2026-09-14T05:48:11.380458,1122,1985,1985,0
2026-09-14T05:48:11.400480,1168,1981,1981,0
2026-09-14T05:48:11.420469,1017,1976,1976,0
2026-09-14T05:48:11.440312,867,1971,1971,0
2026-09-14T05:48:11.460533,1679,1969,1969,0
2026-09-14T05:48:11.480463,4095,1980,1980,0
2026-09-14T05:48:11.500301,33,1970,1970,0
2026-09-14T05:48:11.521560,1008,1965,1965,0
2026-09-14T05:48:11.541337,971,1960,1960,0
2026-09-14T05:48:11.561426,995,1956,1956,0
2026-09-14T05:48:11.581566,1302,1952,1952,0
2026-09-14T05:48:11.601567,1235,1949,1949,0
2026-09-14T05:48:11.621657,1379,1946,1946,0
2026-09-14T05:48:11.641462,1483,1943,1943,0
2026-09-14T05:48:11.661459,1765,1943,1943,0
2026-09-14T05:48:11.682474,2150,1944,1944,0
2026-09-14T05:48:11.702473,2209,1945,1945,0
2026-09-14T05:48:11.722470,2320,1947,1947,0
2026-09-14T05:48:11.742451,1827,1946,1946,0
2026-09-14T05:48:11.762476,1360,1943,1943,0
2026-09-14T05:48:11.782459,1226,1940,1940,0
2026-09-14T05:48:11.813437,1089,1935,1935,0
2026-09-14T05:48:11.822472,973,1931,1931,0
2026-09-14T05:48:11.843502,1011,1926,1926,0
2026-09-14T05:48:11.863482,617,1919,1919,0
2026-09-14T05:48:11.883244,0,1910,1910,0
2026-09-14T05:48:11.903265,0,1900,1900,0
2026-09-14T05:48:11.923297,0,1891,1891,0
2026-09-14T05:48:11.943276,0,1881,1881,0
2026-09-14T05:48:11.963214,0,1872,1872,0
2026-09-14T05:48:11.983249,0,1863,1863,0
2026-09-14T05:48:12.003689,0,1853,1853,0
2026-09-14T05:48:12.024132,0,1844,1844,0
2026-09-14T05:48:12.044150,0,1835,1835,0
2026-09-14T05:48:12.064199,0,1826,1826,0
2026-09-14T05:48:12.084146,0,1816,1816,0
2026-09-14T05:48:12.104149,0,1807,1807,0
2026-09-14T05:48:12.124159,0,1798,1798,0
2026-09-14T05:48:12.144107,0,1789,1789,0
2026-09-14T05:48:12.164344,0,1780,1780,0
2026-09-14T05:48:12.185377,65,1772,1772,0
2026-09-14T05:48:12.205379,576,1766,1766,0
2026-09-14T05:48:12.225431,955,1762,1762,0
2026-09-14T05:48:12.245558,1215,1759,1759,0
2026-09-14T05:48:12.265579,1393,1757,1757,0
2026-09-14T05:48:12.285516,1610,1756,1756,0
2026-09-14T05:48:12.305581,1811,1757,1757,0
2026-09-14T05:48:12.325569,1861,1757,1757,0
2026-09-14T05:48:12.345593,2067,1759,1759,0
2026-09-14T05:48:12.366578,2211,1761,1761,0
2026-09-14T05:48:12.386711,2429,1764,1764,0
2026-09-14T05:48:12.406682,2928,1770,1770,0
2026-09-14T05:48:12.426630,3715,1780,1780,0
2026-09-14T05:48:12.446598,4095,1792,1792,0
2026-09-14T05:48:12.466601,4095,1803,1803,0
2026-09-14T05:48:12.486631,3344,1811,1811,0
2026-09-14T05:48:12.506616,3779,1821,1821,0
2026-09-14T05:48:12.527641,3744,1830,1830,0
2026-09-14T05:48:12.547625,3814,1840,1840,0
2026-09-14T05:48:12.567768,4089,1851,1851,0
2026-09-14T05:48:12.587647,4095,1863,1863,0
2026-09-14T05:48:12.607624,4095,1874,1874,0
2026-09-14T05:48:12.627608,4095,1885,1885,0
2026-09-14T05:48:12.647621,4095,1896,1896,0
2026-09-14T05:48:12.667744,4095,1907,1907,0
2026-09-14T05:48:12.688642,4095,1918,1918,0
2026-09-14T05:48:12.708627,4095,1929,1929,0
2026-09-14T05:48:12.728671,3659,1937,1937,0
2026-09-14T05:48:12.748680,2461,1940,1940,0
2026-09-14T05:48:12.768621,2229,1941,1941,0
2026-09-14T05:48:12.788539,1831,1941,1941,0
2026-09-14T05:48:12.819554,1653,1939,1939,0
2026-09-14T05:48:12.828658,1251,1936,1936,0
2026-09-14T05:48:12.848726,1373,1933,1933,0
2026-09-14T05:48:12.869569,1570,1931,1931,0
2026-09-14T05:48:12.889529,1466,1929,1929,0
2026-09-14T05:48:12.909535,1667,1928,1928,0
2026-09-14T05:48:12.929514,1421,1925,1925,0
2026-09-14T05:48:13.050188,1442,1923,1923,0
2026-09-14T05:48:13.070551,1274,1919,1919,0
2026-09-14T05:48:13.090609,1331,1917,1917,0
2026-09-14T05:48:13.110576,1485,1914,1914,0
2026-09-14T05:48:13.130549,1506,1912,1912,0
2026-09-14T05:48:13.150519,1535,1910,1910,0
2026-09-14T05:48:13.170677,1437,1908,1908,0
2026-09-14T05:48:13.191542,1535,1906,1906,0
2026-09-14T05:48:13.211562,1723,1905,1905,0
2026-09-14T05:48:13.231576,1665,1904,1904,0
2026-09-14T05:48:13.251578,1552,1902,1902,0
2026-09-14T05:48:13.271604,1379,1900,1900,0
2026-09-14T05:48:13.291552,1129,1896,1896,0
2026-09-14T05:48:13.311714,1336,1893,1893,0
2026-09-14T05:48:13.331595,1244,1890,1890,0
2026-09-14T05:48:13.351587,1040,1886,1886,0
2026-09-14T05:48:13.372574,1147,1882,1882,0
2026-09-14T05:48:13.392559,3824,1892,1892,0
2026-09-14T05:48:13.412576,3793,1901,1901,0
2026-09-14T05:48:13.432558,1503,1899,1899,0
2026-09-14T05:48:13.452563,1613,1898,1898,0
2026-09-14T05:48:13.472551,1860,1897,1897,0
2026-09-14T05:48:13.492575,2105,1898,1898,0
2026-09-14T05:48:13.512555,2371,1901,1901,0
2026-09-14T05:48:13.533616,3044,1907,1907,0
2026-09-14T05:48:13.553576,3034,1912,1912,0
2026-09-14T05:48:13.573610,3581,1921,1921,0
2026-09-14T05:48:13.593607,4095,1931,1931,0
2026-09-14T05:48:13.613644,4095,1942,1942,0
2026-09-14T05:48:13.633708,4095,1953,1953,0
2026-09-14T05:48:13.653657,4095,1964,1964,0
2026-09-14T05:48:13.673645,4095,1974,1974,0
2026-09-14T05:48:13.694629,4095,1985,1985,0
2026-09-14T05:48:13.714708,4095,1995,1995,0
2026-09-14T05:48:13.734689,4095,2006,2006,0
2026-09-14T05:48:13.754703,4095,2016,2016,0
2026-09-14T05:48:13.774680,4095,2027,2027,0
2026-09-14T05:48:13.794598,4095,2037,2037,0
2026-09-14T05:48:13.825797,4095,2047,2047,0
2026-09-14T05:48:13.834714,4095,2058,2058,0
2026-09-14T05:48:13.854692,4095,2068,2068,0
2026-09-14T05:48:13.875591,4095,2078,2078,0
2026-09-14T05:48:13.895620,4095,2088,2088,0
2026-09-14T05:48:13.915635,4095,2098,2098,0
2026-09-14T05:48:13.935619,4095,2108,2108,0
2026-09-14T05:48:13.955671,3497,2115,2115,0
2026-09-14T05:48:13.975614,3292,2121,2121,0
2026-09-14T05:48:13.995595,2971,2125,2125,0
2026-09-14T05:48:14.015664,2625,2128,2128,0
2026-09-14T05:48:14.036610,2629,2130,2130,0
2026-09-14T05:48:14.056638,2229,2131,2131,0
2026-09-14T05:48:14.076628,1875,2129,2129,0
2026-09-14T05:48:14.096619,1869,2128,2128,0
2026-09-14T05:48:14.116619,1774,2126,2126,0
2026-09-14T05:48:14.136642,1690,2124,2124,0
2026-09-14T05:48:14.156614,1014,2119,2119,0
2026-09-14T05:48:14.176620,737,2112,2112,0
2026-09-14T05:48:14.196661,601,2104,2104,0
2026-09-14T05:48:14.217616,733,2097,2097,0
2026-09-14T05:48:14.237631,819,2091,2091,0
2026-09-14T05:48:14.257635,691,2084,2084,0
2026-09-14T05:48:14.277636,1170,2079,2079,0
2026-09-14T05:48:14.297623,3985,2089,2089,0
2026-09-14T05:48:14.317462,0,2078,2078,0
2026-09-14T05:48:14.337635,471,2070,2070,0
2026-09-14T05:48:14.357630,272,2061,2061,0
2026-09-14T05:48:14.378659,144,2052,2052,0
2026-09-14T05:48:14.398937,176,2042,2042,0
2026-09-14T05:48:14.418651,159,2033,2033,0
2026-09-14T05:48:14.438654,112,2023,2023,0
2026-09-14T05:48:14.458665,234,2014,2014,0
2026-09-14T05:48:14.478657,470,2007,2007,0
2026-09-14T05:48:14.498749,669,2000,2000,0
2026-09-14T05:48:14.518621,754,1994,1994,0
2026-09-14T05:48:14.539665,960,1989,1989,0
2026-09-14T05:48:14.559625,448,1981,1981,0
2026-09-14T05:48:14.579454,0,1971,1971,0
2026-09-14T05:48:14.599450,0,1961,1961,0
2026-09-14T05:48:14.619445,0,1951,1951,0
2026-09-14T05:48:14.639450,0,1942,1942,0
2026-09-14T05:48:14.659448,0,1932,1932,0
2026-09-14T05:48:14.679468,0,1922,1922,0
2026-09-14T05:48:14.699452,0,1913,1913,0
2026-09-14T05:48:14.720327,0,1903,1903,0
2026-09-14T05:48:14.740547,235,1895,1895,0
2026-09-14T05:48:14.760561,289,1887,1887,0
2026-09-14T05:48:14.780525,82,1878,1878,0
2026-09-14T05:48:14.800640,222,1869,1869,0
2026-09-14T05:48:14.831380,595,1863,1863,0
2026-09-14T05:48:14.840574,372,1855,1855,0
2026-09-14T05:48:14.860561,654,1849,1849,0
2026-09-14T05:48:14.881661,542,1843,1843,0
2026-09-14T05:48:14.901631,654,1837,1837,0
2026-09-14T05:48:14.921614,752,1832,1832,0
2026-09-14T05:48:14.941676,911,1827,1827,0
2026-09-14T05:48:15.062394,1153,1824,1824,0
2026-09-14T05:48:15.082680,1046,1820,1820,0
2026-09-14T05:48:15.102697,1109,1816,1816,0
2026-09-14T05:48:15.122683,2259,1818,1818,0
2026-09-14T05:48:15.142716,4095,1830,1830,0
2026-09-14T05:48:15.162708,615,1824,1824,0
2026-09-14T05:48:15.182726,1399,1822,1822,0
2026-09-14T05:48:15.202712,1317,1819,1819,0
2026-09-14T05:48:15.223728,1388,1817,1817,0
2026-09-14T05:48:15.243736,1488,1815,1815,0
2026-09-14T05:48:15.263749,1655,1814,1814,0
2026-09-14T05:48:15.283741,1718,1814,1814,0
2026-09-14T05:48:15.303770,1911,1814,1814,0
2026-09-14T05:48:15.323849,2135,1816,1816,0
2026-09-14T05:48:15.343708,2393,1819,1819,0
2026-09-14T05:48:15.363750,2594,1823,1823,0
2026-09-14T05:48:15.384784,2559,1826,1826,0
2026-09-14T05:48:15.404785,2134,1828,1828,0
2026-09-14T05:48:15.424768,1658,1827,1827,0
2026-09-14T05:48:15.444776,1366,1825,1825,0
2026-09-14T05:48:15.464753,1358,1822,1822,0
2026-09-14T05:48:15.484744,1449,1821,1821,0
2026-09-14T05:48:15.504750,1467,1819,1819,0
2026-09-14T05:48:15.524781,1358,1816,1816,0
2026-09-14T05:48:15.544764,1559,1815,1815,0
2026-09-14T05:48:15.565681,1489,1814,1814,0
2026-09-14T05:48:15.585788,1623,1813,1813,0
2026-09-14T05:48:15.605789,1648,1812,1812,0
2026-09-14T05:48:15.625798,1604,1811,1811,0
2026-09-14T05:48:15.645793,1722,1810,1810,0
2026-09-14T05:48:15.665768,1648,1809,1809,0
2026-09-14T05:48:15.685765,1804,1809,1809,0
2026-09-14T05:48:15.705786,1757,1809,1809,0
2026-09-14T05:48:15.726782,1747,1809,1809,0
2026-09-14T05:48:15.746787,1772,1809,1809,0
2026-09-14T05:48:15.766791,1841,1809,1809,0
2026-09-14T05:48:15.786789,2000,1810,1810,0
2026-09-14T05:48:15.806709,1980,1811,1811,0
2026-09-14T05:48:15.837869,2309,1813,1813,0
2026-09-14T05:48:15.846812,2045,1814,1814,0
2026-09-14T05:48:15.866795,2010,1815,1815,0
2026-09-14T05:48:15.887837,1968,1816,1816,0
2026-09-14T05:48:15.907826,1767,1816,1816,0
2026-09-14T05:48:15.927848,1802,1816,1816,0
2026-09-14T05:48:15.947834,1830,1816,1816,0
2026-09-14T05:48:15.967825,1852,1816,1816,0
2026-09-14T05:48:15.987896,2134,1818,1818,0
2026-09-14T05:48:16.007840,4095,1829,1829,0
2026-09-14T05:48:16.028775,4095,1840,1840,0
2026-09-14T05:48:16.047845,1719,1840,1840,0
2026-09-14T05:48:16.068732,2032,1841,1841,0
2026-09-14T05:48:16.088901,2446,1844,1844,0
2026-09-14T05:48:16.108736,2544,1847,1847,0
2026-09-14T05:48:16.128759,2591,1851,1851,0
2026-09-14T05:48:16.148911,2713,1855,1855,0
2026-09-14T05:48:16.168729,2346,1858,1858,0
2026-09-14T05:48:16.188857,2669,1862,1862,0
2026-09-14T05:48:16.208726,2690,1866,1866,0
2026-09-14T05:48:16.229741,2809,1871,1871,0
2026-09-14T05:48:16.249789,2950,1876,1876,0
2026-09-14T05:48:16.269760,2778,1880,1880,0
2026-09-14T05:48:16.289740,2448,1883,1883,0
2026-09-14T05:48:16.309761,1840,1883,1883,0
2026-09-14T05:48:16.329637,1533,1881,1881,0
2026-09-14T05:48:16.349769,1503,1879,1879,0
2026-09-14T05:48:16.369754,1502,1878,1878,0
2026-09-14T05:48:16.390758,1711,1877,1877,0
2026-09-14T05:48:16.410754,1562,1875,1875,0
2026-09-14T05:48:16.430781,1569,1874,1874,0
2026-09-14T05:48:16.450770,1535,1872,1872,0
2026-09-14T05:48:16.470777,1526,1870,1870,0
2026-09-14T05:48:16.490755,1652,1869,1869,0
2026-09-14T05:48:16.510755,1584,1868,1868,0
2026-09-14T05:48:16.530782,1581,1866,1866,0
2026-09-14T05:48:16.551803,1584,1865,1865,0
2026-09-14T05:48:16.571841,1597,1863,1863,0
2026-09-14T05:48:16.591801,1609,1862,1862,0
2026-09-14T05:48:16.611757,1665,1861,1861,0
2026-09-14T05:48:16.631794,1600,1860,1860,0
2026-09-14T05:48:16.651759,1633,1859,1859,0
2026-09-14T05:48:16.671779,1665,1858,1858,0
2026-09-14T05:48:16.691959,1641,1857,1857,0
2026-09-14T05:48:16.711913,1754,1856,1856,0
2026-09-14T05:48:16.732804,1856,1856,1856,0
2026-09-14T05:48:16.752779,1648,1855,2155,0
2026-09-14T05:48:16.772791,1825,1855,1855,0
2026-09-14T05:48:16.792963,1979,1856,1856,0
2026-09-14T05:48:16.812791,2062,1857,1857,0
2026-09-14T05:48:16.843941,1985,1857,1857,0
2026-09-14T05:48:16.852831,1698,1856,1856,0
2026-09-14T05:48:16.872810,1596,1855,1855,0
2026-09-14T05:48:16.893851,1686,1854,1854,0
2026-09-14T05:48:16.913854,1712,1854,1854,0
2026-09-14T05:48:16.934045,1655,1853,1853,0
2026-09-14T05:48:16.953851,1648,1852,1852,0
2026-09-14T05:48:17.074380,1709,1851,1851,0
2026-09-14T05:48:17.094846,1754,1850,1850,0
2026-09-14T05:48:17.114874,2093,1852,1852,0
2026-09-14T05:48:17.134906,2022,1852,1852,0
2026-09-14T05:48:17.154894,2122,1854,1854,0
2026-09-14T05:48:17.174869,2302,1856,1856,0
2026-09-14T05:48:17.194873,2551,1859,1859,0
2026-09-14T05:48:17.214854,3021,1865,1865,0
2026-09-14T05:48:17.235997,2589,1869,1869,0
2026-09-14T05:48:17.255911,2249,1871,1871,0
2026-09-14T05:48:17.275920,1722,1870,1870,0
2026-09-14T05:48:17.295902,1392,1868,1868,0
2026-09-14T05:48:17.315920,1535,1866,1866,0
2026-09-14T05:48:17.335938,1314,1863,1863,0
2026-09-14T05:48:17.355878,1338,1861,1861,0
2026-09-14T05:48:17.375918,1333,1858,1858,0
2026-09-14T05:48:17.396957,1350,1855,1855,0
2026-09-14T05:48:17.416946,1553,1854,1854,0
2026-09-14T05:48:17.436947,1389,1852,1852,0
2026-09-14T05:48:17.456955,1377,1849,1849,0
2026-09-14T05:48:17.476957,1369,1847,1847,0
2026-09-14T05:48:17.496941,1359,1844,1844,0
2026-09-14T05:48:17.516959,1488,1843,1843,0
2026-09-14T05:48:17.536979,1392,1840,1840,0
2026-09-14T05:48:17.557966,1360,1838,1838,0
2026-09-14T05:48:17.577984,1392,1836,1836,0
2026-09-14T05:48:17.597984,1415,1834,1834,0
2026-09-14T05:48:17.618038,1511,1832,1832,0
2026-09-14T05:48:17.638025,1447,1830,1830,0
2026-09-14T05:48:17.657960,1467,1828,1828,0
2026-09-14T05:48:17.677976,1482,1826,1826,0
2026-09-14T05:48:17.697996,1498,1825,1825,0
2026-09-14T05:48:17.718039,1534,1823,1823,0
2026-09-14T05:48:17.738985,1555,1822,1822,0
2026-09-14T05:48:17.758998,1678,1821,1821,0
2026-09-14T05:48:17.779042,1730,1821,1821,0
2026-09-14T05:48:17.798980,1725,1820,1820,0
2026-09-14T05:48:17.818864,1680,1820,1820,0
2026-09-14T05:48:17.849881,1659,1819,1819,0
2026-09-14T05:48:17.859000,1407,1817,1817,0
2026-09-14T05:48:17.879003,1438,1815,1815,0
2026-09-14T05:48:17.900037,1488,1813,1813,0
2026-09-14T05:48:17.920007,1533,1812,1812,0
2026-09-14T05:48:17.940058,1616,1811,1811,0
2026-09-14T05:48:17.960006,2827,1816,1816,0
2026-09-14T05:48:17.980013,4095,1827,1827,0
2026-09-14T05:48:17.999819,820,1822,1822,0
2026-09-14T05:48:18.019996,1562,1821,1821,0
2026-09-14T05:48:18.040019,1684,1820,1820,0
2026-09-14T05:48:18.061007,1535,1819,1819,0
2026-09-14T05:48:18.081021,1616,1818,1818,0
2026-09-14T05:48:18.101009,1717,1817,1817,0
2026-09-14T05:48:18.121114,1829,1817,1817,0
2026-09-14T05:48:18.141426,2118,1819,2119,0
2026-09-14T05:48:18.161017,2201,1821,1821,0
2026-09-14T05:48:18.181007,2421,1824,1824,0
2026-09-14T05:48:18.201034,2545,1827,1827,0
2026-09-14T05:48:18.221009,2559,1831,1831,0
2026-09-14T05:48:18.242015,2336,1834,1834,0
2026-09-14T05:48:18.262018,1628,1833,1833,0
2026-09-14T05:48:18.282051,1285,1830,1830,0
2026-09-14T05:48:18.302009,1164,1826,1826,0
2026-09-14T05:48:18.322027,1175,1823,1823,0
2026-09-14T05:48:18.342059,1394,1821,1821,0
2026-09-14T05:48:18.362026,1263,1818,1818,0
2026-09-14T05:48:18.382042,1246,1815,1815,0
2026-09-14T05:48:18.403051,1281,1813,1813,0
2026-09-14T05:48:18.423060,1288,1810,1810,0
2026-09-14T05:48:18.443044,1508,1809,1809,0
2026-09-14T05:48:18.463073,1330,1806,1806,0
2026-09-14T05:48:18.483066,1328,1804,1804,0
2026-09-14T05:48:18.503037,1328,1801,1801,0
2026-09-14T05:48:18.523041,1352,1799,1799,0
2026-09-14T05:48:18.543063,1584,1798,1798,0
2026-09-14T05:48:18.564060,1426,1796,1796,0
2026-09-14T05:48:18.584080,1435,1794,1794,0
2026-09-14T05:48:18.604057,1430,1793,1793,0
2026-09-14T05:48:18.624051,1522,1791,1791,0
2026-09-14T05:48:18.644052,1777,1791,1791,0
2026-09-14T05:48:18.664037,1767,1791,1791,0
2026-09-14T05:48:18.684047,1721,1791,1791,0
2026-09-14T05:48:18.704070,1584,1790,2090,0
2026-09-14T05:48:18.725054,1413,1788,1788,0
2026-09-14T05:48:18.745054,1521,1786,1786,0
2026-09-14T05:48:18.765070,1506,1785,1785,0
2026-09-14T05:48:18.785139,1510,1784,1784,0
2026-09-14T05:48:18.805081,1521,1782,1782,0
2026-09-14T05:48:18.824929,2060,1784,1784,0
2026-09-14T05:48:18.856370,4095,1795,1795,0
2026-09-14T05:48:18.865058,1466,1794,1794,0
2026-09-14T05:48:18.885948,1667,1793,1793,0
2026-09-14T05:48:18.906091,1603,1792,1792,0
2026-09-14T05:48:18.926081,1658,1791,1791,0
2026-09-14T05:48:18.946105,1713,1791,1791,0
2026-09-14T05:48:18.966080,1915,1792,1792,0
2026-09-14T05:48:19.086594,2657,1796,1796,0
2026-09-14T05:48:19.106934,2320,1799,1799,0
2026-09-14T05:48:19.127067,1758,1798,1798,0
2026-09-14T05:48:19.147055,1418,1796,1796,0
2026-09-14T05:48:19.167101,1423,1795,1795,0
2026-09-14T05:48:19.187085,1289,1792,1792,0
2026-09-14T05:48:19.208112,1296,1790,1790,0
2026-09-14T05:48:19.228099,1335,1787,1787,0
2026-09-14T05:48:19.248065,1360,1785,1785,0
2026-09-14T05:48:19.268080,1513,1784,1784,0
2026-09-14T05:48:19.288092,1414,1782,1782,0
2026-09-14T05:48:19.308076,1413,1780,1780,0
2026-09-14T05:48:19.328086,1384,1778,1778,0
2026-09-14T05:48:19.348069,1414,1776,1776,0
2026-09-14T05:48:19.368174,1594,1775,1775,0
2026-09-14T05:48:19.389082,1445,1774,1774,0
2026-09-14T05:48:19.409088,1455,1772,1772,0
2026-09-14T05:48:19.429080,1475,1771,1771,0
2026-09-14T05:48:19.449057,1489,1769,1769,0
2026-09-14T05:48:19.469045,1773,1769,1769,0
2026-09-14T05:48:19.489077,1582,1768,2068,0
2026-09-14T05:48:19.509074,1601,1767,1767,0
2026-09-14T05:48:19.529081,1627,1767,1767,0
2026-09-14T05:48:19.550106,1675,1766,1766,0
2026-09-14T05:48:19.570086,2037,1768,1768,0
2026-09-14T05:48:19.590078,1968,1769,1769,0
2026-09-14T05:48:19.610050,1921,1769,1769,0
2026-09-14T05:48:19.630076,1917,1770,1770,0
2026-09-14T05:48:19.650040,1808,1770,1770,0
2026-09-14T05:48:19.670064,1879,1771,1771,0
2026-09-14T05:48:19.690062,1775,1771,1771,0
2026-09-14T05:48:19.711079,1805,1771,1771,0
2026-09-14T05:48:19.731150,1865,1772,1772,0
2026-09-14T05:48:19.751125,1949,1772,1772,0
2026-09-14T05:48:19.771078,4095,1784,1784,0
2026-09-14T05:48:19.791069,4095,1796,1796,0
2026-09-14T05:48:19.811088,1853,1796,1796,0
2026-09-14T05:48:19.831017,2079,1797,1797,0
2026-09-14T05:48:19.862164,2302,1800,1800,0
2026-09-14T05:48:19.872087,2298,1802,1802,0
2026-09-14T05:48:19.892100,2299,1805,1805,0
2026-09-14T05:48:19.912081,2397,1808,1808,0
2026-09-14T05:48:19.932118,2538,1811,1811,0
2026-09-14T05:48:19.952107,2723,1816,1816,0
2026-09-14T05:48:19.972080,3082,1822,1822,0
2026-09-14T05:48:19.992103,3345,1830,1830,0
2026-09-14T05:48:20.012092,3456,1838,1838,0
2026-09-14T05:48:20.033131,3331,1845,1845,0
2026-09-14T05:48:20.053118,2772,1850,1850,0
2026-09-14T05:48:20.073131,2295,1852,1852,0
2026-09-14T05:48:20.093113,2496,1856,1856,0
2026-09-14T05:48:20.113121,2487,1859,1859,0
2026-09-14T05:48:20.133110,2512,1862,1862,0
2026-09-14T05:48:20.153102,2511,1865,1865,0
2026-09-14T05:48:20.173117,2502,1868,1868,0
2026-09-14T05:48:20.194134,2241,1870,1870,0
2026-09-14T05:48:20.214128,2126,1871,1871,0
2026-09-14T05:48:20.234097,2131,1873,1873,0
2026-09-14T05:48:20.254115,2133,1874,1874,0
2026-09-14T05:48:20.274104,2127,1875,1875,0
2026-09-14T05:48:20.294064,2237,1877,1877,0
2026-09-14T05:48:20.314068,2152,1879,1879,0
2026-09-14T05:48:20.334132,2149,1880,1880,0
2026-09-14T05:48:20.354190,2156,1881,1881,0
2026-09-14T05:48:20.375191,2141,1883,1883,0
2026-09-14T05:48:20.395193,2249,1884,1884,0
2026-09-14T05:48:20.415221,2155,1886,1886,0
2026-09-14T05:48:20.435191,2126,1887,1887,0
2026-09-14T05:48:20.455203,2127,1888,1888,0
2026-09-14T05:48:20.475189,2160,1889,1889,0
2026-09-14T05:48:20.495213,2397,1892,1892,0
2026-09-14T05:48:20.515186,2368,1894,1894,0
2026-09-14T05:48:20.536062,2261,1896,1896,0
2026-09-14T05:48:20.556156,2096,1897,1897,0
2026-09-14T05:48:20.576047,1883,1897,1897,0
2026-09-14T05:48:20.596039,2000,1898,2198,0
2026-09-14T05:48:20.616054,1822,1897,1897,0
2026-09-14T05:48:20.636063,1816,1897,1897,0
2026-09-14T05:48:20.656076,1793,1896,1896,0
2026-09-14T05:48:20.676053,2138,1898,1898,0
2026-09-14T05:48:20.697056,4095,1909,1909,0
2026-09-14T05:48:20.717074,1938,1909,1909,0
2026-09-14T05:48:20.737106,1751,1908,1908,0
2026-09-14T05:48:20.757090,1641,1907,1907,0
2026-09-14T05:48:20.777086,1657,1905,1905,0
2026-09-14T05:48:20.797111,1874,1905,1905,0
2026-09-14T05:48:20.817094,1755,1904,1904,0
2026-09-14T05:48:20.837093,1840,1904,1904,0
2026-09-14T05:48:20.868207,2172,1905,1905,0
2026-09-14T05:48:20.878133,2091,1906,1906,0
2026-09-14T05:48:20.898160,2507,1909,1909,0
2026-09-14T05:48:20.918131,2480,1912,1912,0
2026-09-14T05:48:20.938193,2463,1915,1915,0
2026-09-14T05:48:20.958140,2192,1916,1916,0
2026-09-14T05:48:20.978121,1614,1915,1915,0
2026-09-14T05:48:21.098660,1007,1910,1910,0
2026-09-14T05:48:21.119165,1009,1906,1906,0
2026-09-14T05:48:21.139178,1039,1901,1901,0
2026-09-14T05:48:21.158972,976,1897,1897,0
2026-09-14T05:48:21.179178,1008,1892,1892,0
2026-09-14T05:48:21.200191,1008,1888,1888,0
2026-09-14T05:48:21.220210,1035,1884,1884,0
2026-09-14T05:48:21.240046,979,1879,1879,0
2026-09-14T05:48:21.260029,974,1875,1875,0
2026-09-14T05:48:21.280205,1006,1870,1870,0
2026-09-14T05:48:21.300217,1002,1866,1866,0
2026-09-14T05:48:21.320198,1102,1862,1862,0
2026-09-14T05:48:21.340150,1190,1859,1859,0
2026-09-14T05:48:21.361242,1253,1856,1856,0
2026-09-14T05:48:21.381226,1237,1853,1853,0
2026-09-14T05:48:21.401284,1178,1849,1849,0
2026-09-14T05:48:21.421227,1106,1846,1846,0
2026-09-14T05:48:21.441055,955,1841,1841,0
2026-09-14T05:48:21.461123,956,1837,1837,0
2026-09-14T05:48:21.481041,983,1832,1832,0
2026-09-14T05:48:21.501219,1040,1828,1828,0
2026-09-14T05:48:21.522234,1113,1825,1825,0
2026-09-14T05:48:21.542283,3063,1831,1831,0
2026-09-14T05:48:21.562292,4095,1842,1842,0
2026-09-14T05:48:21.582065,608,1836,1836,0
2026-09-14T05:48:21.602239,1075,1832,1832,0
2026-09-14T05:48:21.622254,1244,1829,1829,0
2026-09-14T05:48:21.642265,1174,1826,1826,0
2026-09-14T05:48:21.662263,1241,1823,1823,0
2026-09-14T05:48:21.683255,1334,1821,1821,0
2026-09-14T05:48:21.703262,1444,1819,1819,0
2026-09-14T05:48:21.723303,1759,1819,1819,0
2026-09-14T05:48:21.743284,1834,1819,1819,0
2026-09-14T05:48:21.763292,2042,1820,2120,0
2026-09-14T05:48:21.783255,2138,1821,1821,0
2026-09-14T05:48:21.803261,2080,1823,1823,0
2026-09-14T05:48:21.823273,1826,1823,1823,0
2026-09-14T05:48:21.844179,1116,1819,1819,0
2026-09-14T05:48:21.875224,1044,1815,1815,0
2026-09-14T05:48:21.884143,810,1810,1810,0
2026-09-14T05:48:21.904135,814,1805,1805,0
2026-09-14T05:48:21.924156,1040,1801,1801,0
2026-09-14T05:48:21.944151,893,1797,1797,0
2026-09-14T05:48:21.964209,911,1792,1792,0
2026-09-14T05:48:21.984134,927,1788,1788,0
2026-09-14T05:48:22.005170,943,1784,1784,0
2026-09-14T05:48:22.025215,1158,1781,1781,0
2026-09-14T05:48:22.045164,1001,1777,1777,0
2026-09-14T05:48:22.065142,972,1773,1773,0
2026-09-14T05:48:22.085158,991,1769,1769,0
2026-09-14T05:48:22.105181,1008,1765,1765,0
2026-09-14T05:48:22.125327,1185,1762,1762,0
2026-09-14T05:48:22.145144,1088,1759,1759,0
2026-09-14T05:48:22.166187,1089,1755,1755,0
2026-09-14T05:48:22.186194,1176,1753,1753,0
2026-09-14T05:48:22.206183,1251,1750,1750,0
2026-09-14T05:48:22.226373,1295,1748,1748,0
2026-09-14T05:48:22.246162,1150,1745,1745,0
2026-09-14T05:48:22.266169,1291,1742,1742,0
2026-09-14T05:48:22.286229,1412,1741,1741,0
2026-09-14T05:48:22.306185,1377,1739,1739,0
2026-09-14T05:48:22.327229,1394,1737,1737,0
2026-09-14T05:48:22.347209,1328,1735,1735,0
2026-09-14T05:48:22.367298,1189,1732,1732,0
2026-09-14T05:48:22.387221,1248,1730,1730,0
2026-09-14T05:48:22.407192,1303,1728,1728,0
2026-09-14T05:48:22.427204,1390,1726,1726,0
2026-09-14T05:48:22.447189,1495,1725,1725,0
2026-09-14T05:48:22.467205,3460,1734,1734,0
2026-09-14T05:48:22.487191,4095,1746,1746,0
2026-09-14T05:48:22.508199,1287,1743,1743,0
2026-09-14T05:48:22.528207,1525,1742,1742,0
2026-09-14T05:48:22.548186,1645,1742,1742,0
2026-09-14T05:48:22.568364,1616,1741,1741,0
2026-09-14T05:48:22.588384,1681,1741,1741,0
2026-09-14T05:48:22.608329,1744,1741,1741,0
2026-09-14T05:48:22.628327,1838,1741,2041,0
2026-09-14T05:48:22.648331,2099,1743,1743,0
2026-09-14T05:48:22.669371,2191,1745,1745,0
2026-09-14T05:48:22.689352,2401,1749,1749,0
2026-09-14T05:48:22.709369,2473,1752,1752,0
2026-09-14T05:48:22.729323,2404,1755,1755,0
2026-09-14T05:48:22.749380,2113,1757,1757,0
2026-09-14T05:48:22.769356,1523,1756,1756,0
2026-09-14T05:48:22.789391,1296,1754,1754,0
2026-09-14T05:48:22.809332,1243,1751,1751,0
2026-09-14T05:48:22.830347,1266,1749,1749,0
2026-09-14T05:48:22.850219,1454,1747,1747,0
2026-09-14T05:48:22.881267,1569,1746,1746,0
2026-09-14T05:48:22.890396,1340,1744,1744,0
2026-09-14T05:48:22.910405,1369,1742,1742,0
2026-09-14T05:48:22.930369,1373,1741,1741,0
2026-09-14T05:48:22.950353,1559,1740,1740,0
2026-09-14T05:48:22.970338,1393,1738,1738,0
2026-09-14T05:48:22.991436,1382,1736,1736,0
2026-09-14T05:48:23.111881,1506,1735,1735,0
2026-09-14T05:48:23.131392,1563,1734,1734,0
2026-09-14T05:48:23.152206,1813,1735,1735,0
2026-09-14T05:48:23.172274,1667,1734,1734,0
2026-09-14T05:48:23.192268,1670,1734,1734,0
2026-09-14T05:48:23.212216,1808,1734,1734,0
2026-09-14T05:48:23.232217,1905,1735,1735,0
2026-09-14T05:48:24.805517,1726,1735,1735,0
2026-09-14T05:48:24.836250,1824,1736,1736,0
2026-09-14T05:48:24.842314,1632,1735,1735,0
2026-09-14T05:48:24.862419,1435,1733,1733,0
2026-09-14T05:48:24.882415,1174,1731,1731,0
2026-09-14T05:48:24.902401,1232,1728,1728,0
2026-09-14T05:48:24.922403,1151,1725,1725,0
2026-09-14T05:48:24.943404,1196,1723,1723,0
2026-09-14T05:48:24.963413,1309,1721,1721,0
2026-09-14T05:48:24.983396,1426,1719,1719,0
2026-09-14T05:48:25.003870,1488,1718,1718,0
2026-09-14T05:48:25.124080,1584,1717,1717,0
2026-09-14T05:48:25.144365,2213,1720,1720,0
2026-09-14T05:48:25.164388,4095,1732,1732,0
2026-09-14T05:48:25.184335,459,1725,1725,0
2026-09-14T05:48:25.204352,1600,1725,1725,0
2026-09-14T05:48:25.224560,1525,1724,1724,0
2026-09-14T05:48:25.244579,1605,1723,1723,0
2026-09-14T05:48:25.265426,1250,1721,1721,0
2026-09-14T05:48:25.285419,1260,1718,1718,0
2026-09-14T05:48:25.305364,1610,1718,1718,0
2026-09-14T05:48:25.325399,1509,1717,1717,0
2026-09-14T05:48:25.345388,1700,1717,1717,0
2026-09-14T05:48:25.365398,1952,1718,2018,0
2026-09-14T05:48:25.385455,2112,1720,1720,0
2026-09-14T05:48:25.405383,2334,1723,1723,0
2026-09-14T05:48:25.426422,1839,1723,1723,0
2026-09-14T05:48:25.446410,1298,1721,1721,0
2026-09-14T05:48:25.466468,935,1717,1717,0
2026-09-14T05:48:25.486387,831,1713,1713,0
2026-09-14T05:48:25.506408,999,1709,1709,0
2026-09-14T05:48:25.526389,851,1705,1705,0
2026-09-14T05:48:25.546419,847,1701,1701,0
2026-09-14T05:48:25.566389,887,1697,1697,0
2026-09-14T05:48:25.587323,903,1693,1693,0
2026-09-14T05:48:25.607527,1078,1690,1690,0
2026-09-14T05:48:25.627304,960,1686,1686,0
2026-09-14T05:48:25.647404,933,1682,1682,0
2026-09-14T05:48:25.667412,944,1679,1679,0
2026-09-14T05:48:25.687392,969,1675,1675,0
2026-09-14T05:48:25.707426,1037,1672,1672,0
2026-09-14T05:48:25.727558,1090,1669,1669,0
2026-09-14T05:48:25.748430,1175,1666,1666,0
2026-09-14T05:48:25.768437,1299,1665,1665,0
2026-09-14T05:48:25.788608,1264,1663,1663,0
2026-09-14T05:48:25.808407,1202,1660,1660,0
2026-09-14T05:48:25.839530,1201,1658,1658,0
2026-09-14T05:48:25.848272,975,1655,1655,0
2026-09-14T05:48:25.868590,1008,1651,1651,0
2026-09-14T05:48:25.888587,1050,1648,1648,0
2026-09-14T05:48:25.908520,1096,1646,1646,0
2026-09-14T05:48:25.929557,1535,1645,1645,0
2026-09-14T05:48:25.949539,4095,1657,1657,0
2026-09-14T05:48:25.969332,568,1652,1652,0
2026-09-14T05:48:25.989550,1264,1650,1650,0
2026-09-14T05:48:26.009511,1174,1647,1647,0
2026-09-14T05:48:26.029524,1318,1646,1646,0
2026-09-14T05:48:26.049520,1317,1644,1644,0
2026-09-14T05:48:26.069535,1392,1643,1643,0
2026-09-14T05:48:26.090513,1507,1642,1642,0
2026-09-14T05:48:26.110490,1645,1642,1642,0
2026-09-14T05:48:26.130521,1952,1644,1944,0
2026-09-14T05:48:26.150514,2111,1646,1646,0
2026-09-14T05:48:26.170550,2275,1649,1649,0
2026-09-14T05:48:26.190511,2278,1652,1652,0
2026-09-14T05:48:26.210648,2023,1654,1654,0
2026-09-14T05:48:26.230483,1649,1654,1654,0
2026-09-14T05:48:26.251495,1166,1652,1652,0
2026-09-14T05:48:26.271515,1039,1649,1649,0
2026-09-14T05:48:26.291487,1022,1646,1646,0
2026-09-14T05:48:26.311459,1047,1643,1643,0
2026-09-14T05:48:26.331492,1283,1641,1641,0
2026-09-14T05:48:26.351413,1125,1638,1638,0
2026-09-14T05:48:26.371496,1131,1636,1636,0
2026-09-14T05:48:26.391456,1164,1633,1633,0
2026-09-14T05:48:26.412497,1155,1631,1631,0
2026-09-14T05:48:26.432483,1333,1629,1629,0
2026-09-14T05:48:26.452505,1166,1627,1627,0
2026-09-14T05:48:26.472493,1157,1625,1625,0
2026-09-14T05:48:26.492496,1160,1622,1622,0
2026-09-14T05:48:26.512464,1175,1620,1620,0
2026-09-14T05:48:26.532798,1401,1619,1619,0
2026-09-14T05:48:26.552614,1233,1617,1617,0
2026-09-14T05:48:26.573656,1242,1615,1615,0
2026-09-14T05:48:26.593641,1420,1614,1614,0
2026-09-14T05:48:26.613660,1495,1614,1614,0
2026-09-14T05:48:26.633640,1713,1614,1614,0
2026-09-14T05:48:26.653626,1502,1614,1614,0
2026-09-14T05:48:26.673642,1330,1612,1612,0
2026-09-14T05:48:26.693613,1218,1610,1610,0
2026-09-14T05:48:26.713613,1230,1608,1608,0
2026-09-14T05:48:26.734700,1437,1607,1607,0
2026-09-14T05:48:26.754687,1341,1606,1606,0
2026-09-14T05:48:26.774647,1329,1605,1605,0
2026-09-14T05:48:26.794660,3520,1614,1614,0
2026-09-14T05:48:26.814531,4095,1627,1627,0
2026-09-14T05:48:26.845853,1872,1628,1628,0
2026-09-14T05:48:26.854620,1396,1627,1627,0
2026-09-14T05:48:26.874627,1415,1626,1626,0
2026-09-14T05:48:26.895672,1459,1625,1625,0
2026-09-14T05:48:26.915636,1561,1625,1625,0
2026-09-14T05:48:26.935649,1675,1625,1625,0
2026-09-14T05:48:26.955642,1829,1626,1626,0
2026-09-14T05:48:26.975639,1931,1627,1627,0
2026-09-14T05:48:26.995623,2190,1630,1630,0
2026-09-14T05:48:27.015671,2413,1634,1634,0
2026-09-14T05:48:27.136136,1184,1632,1632,0
2026-09-14T05:48:27.156647,1312,1630,1630,0
2026-09-14T05:48:27.176633,1273,1628,1628,0
2026-09-14T05:48:27.196675,1300,1627,1627,0
2026-09-14T05:48:27.216688,1338,1625,1625,0
2026-09-14T05:48:27.237539,1329,1624,1624,0
2026-09-14T05:48:27.257548,1445,1623,1623,0
2026-09-14T05:48:27.277612,1395,1622,1622,0
2026-09-14T05:48:27.297531,1395,1621,1621,0
2026-09-14T05:48:27.317520,1392,1620,1620,0
2026-09-14T05:48:27.337541,1430,1619,1619,0
2026-09-14T05:48:27.357564,1709,1619,1619,0
2026-09-14T05:48:27.377545,1500,1618,1618,0
2026-09-14T05:48:27.398576,1512,1618,1618,0
2026-09-14T05:48:27.418594,1557,1618,1618,0
2026-09-14T05:48:27.438609,1601,1618,1618,0
2026-09-14T05:48:27.458613,1983,1619,1919,0
2026-09-14T05:48:27.478623,1887,1621,1621,0
2026-09-14T05:48:27.498611,1964,1622,1622,0
2026-09-14T05:48:27.518573,1926,1624,1624,0
2026-09-14T05:48:27.538636,1797,1625,1625,0
2026-09-14T05:48:27.559594,1908,1626,1626,0
2026-09-14T05:48:27.579601,1778,1627,1627,0
2026-09-14T05:48:27.599617,1831,1628,1628,0
2026-09-14T05:48:27.619584,1901,1629,1629,0
2026-09-14T05:48:27.639617,1901,1631,1631,0
2026-09-14T05:48:27.659568,4095,1643,1643,0
2026-09-14T05:48:27.679589,4095,1655,1655,0
2026-09-14T05:48:27.699840,1603,1655,1655,0
2026-09-14T05:48:27.720605,2192,1658,1658,0
2026-09-14T05:48:27.740628,2284,1661,1661,0
2026-09-14T05:48:27.760596,2596,1665,1665,0
2026-09-14T05:48:27.780609,2518,1670,1670,0
2026-09-14T05:48:27.800592,2623,1675,1675,0
2026-09-14T05:48:27.820638,2779,1680,1680,0
2026-09-14T05:48:27.851954,3471,1689,1689,0
2026-09-14T05:48:27.860654,3615,1699,1699,0
2026-09-14T05:48:27.881658,3904,1710,1710,0
2026-09-14T05:48:27.901612,4095,1722,1722,0
2026-09-14T05:48:27.921635,4095,1733,1733,0
2026-09-14T05:48:27.941650,3279,1741,1741,0
2026-09-14T05:48:27.961599,2878,1747,1747,0
2026-09-14T05:48:27.981591,2585,1751,1751,0
2026-09-14T05:48:28.001545,2545,1755,1755,0
2026-09-14T05:48:28.021567,2553,1759,1759,0
2026-09-14T05:48:28.042583,2641,1763,1763,0
2026-09-14T05:48:28.062614,2720,1768,1768,0
2026-09-14T05:48:28.082598,2737,1773,1773,0
2026-09-14T05:48:28.102613,2705,1778,1778,0
2026-09-14T05:48:28.122598,2671,1782,1782,0
2026-09-14T05:48:28.142755,2647,1786,1786,0
2026-09-14T05:48:28.162738,2645,1791,1791,0
2026-09-14T05:48:28.182805,2666,1795,1795,0
2026-09-14T05:48:28.202749,2583,1799,1799,0
2026-09-14T05:48:28.223774,2525,1803,1803,0
2026-09-14T05:48:28.243715,2494,1806,1806,0
2026-09-14T05:48:28.263779,2469,1809,1809,0
2026-09-14T05:48:28.283764,2496,1813,1813,0
2026-09-14T05:48:28.303770,2395,1816,1816,0
2026-09-14T05:48:28.323742,2366,1819,1819,0
2026-09-14T05:48:28.343712,2343,1821,1821,0
2026-09-14T05:48:28.363774,2300,1824,1824,0
2026-09-14T05:48:28.384744,2344,1826,1826,0
2026-09-14T05:48:28.404769,2325,1829,1829,0
2026-09-14T05:48:28.424780,2363,1831,1831,0
2026-09-14T05:48:28.444815,2369,1834,1834,0
2026-09-14T05:48:28.464759,2278,1836,1836,0
2026-09-14T05:48:28.484721,2186,1838,1838,0
2026-09-14T05:48:28.504757,1855,1838,1838,0
2026-09-14T05:48:28.524713,1783,1838,1838,0
2026-09-14T05:48:28.545773,1726,1837,2137,0
2026-09-14T05:48:28.565758,1707,1837,1837,0
2026-09-14T05:48:28.585711,1809,1836,1836,0
2026-09-14T05:48:28.605746,1966,1837,1837,0
2026-09-14T05:48:28.625708,4095,1848,1848,0
2026-09-14T05:48:28.645707,1845,1848,1848,0
2026-09-14T05:48:28.665741,1581,1847,1847,0
2026-09-14T05:48:28.685688,1600,1846,1846,0
2026-09-14T05:48:28.706767,1446,1844,1844,0
2026-09-14T05:48:28.726757,1436,1842,1842,0
2026-09-14T05:48:28.746747,1474,1840,1840,0
2026-09-14T05:48:28.766705,1526,1838,1838,0
2026-09-14T05:48:28.786701,1808,1838,1838,0
2026-09-14T05:48:28.806794,1801,1838,1838,0
2026-09-14T05:48:28.826681,1984,1839,1839,0
2026-09-14T05:48:28.857786,2346,1841,1841,0
2026-09-14T05:48:28.867754,2137,1843,1843,0
2026-09-14T05:48:28.887734,2193,1844,1844,0
2026-09-14T05:48:28.907752,1404,1842,1842,0
2026-09-14T05:48:28.927691,912,1838,1838,0
2026-09-14T05:48:28.947683,688,1832,1832,0
2026-09-14T05:48:28.967635,650,1826,1826,0
2026-09-14T05:48:28.987658,819,1821,1821,0
2026-09-14T05:48:29.007632,667,1815,1815,0
2026-09-14T05:48:29.028660,681,1809,1809,0
2026-09-14T05:48:29.149167,666,1804,1804,0
2026-09-14T05:48:29.168602,709,1798,1798,0
2026-09-14T05:48:29.189679,778,1793,1793,0
2026-09-14T05:48:29.209626,811,1788,1788,0
2026-09-14T05:48:29.229653,752,1783,1783,0
2026-09-14T05:48:29.249598,771,1778,1778,0
2026-09-14T05:48:29.269609,820,1773,1773,0
2026-09-14T05:48:29.289678,950,1769,1769,0
2026-09-14T05:48:29.309673,1111,1766,1766,0
2026-09-14T05:48:29.329797,1034,1762,1762,0
2026-09-14T05:48:29.350658,925,1758,1758,0
2026-09-14T05:48:29.370624,778,1753,1753,0
2026-09-14T05:48:29.390665,791,1748,1748,0
2026-09-14T05:48:29.410650,886,1744,1744,0
2026-09-14T05:48:29.430620,894,1740,1740,0
2026-09-14T05:48:29.450610,923,1736,1736,0
2026-09-14T05:48:29.470800,1168,1733,1733,0
2026-09-14T05:48:29.490799,4095,1745,1745,0
2026-09-14T05:48:29.511806,1168,1742,1742,0
2026-09-14T05:48:29.531807,1098,1738,1738,0
2026-09-14T05:48:29.552013,1040,1735,1735,0
2026-09-14T05:48:29.571839,1098,1732,1732,0
2026-09-14T05:48:29.591759,1183,1729,1729,0
2026-09-14T05:48:29.611798,1406,1727,1727,0
2026-09-14T05:48:29.631794,1407,1726,1726,0
2026-09-14T05:48:29.651932,1535,1725,1725,0
2026-09-14T05:48:29.672807,1765,1725,1725,0
2026-09-14T05:48:29.692769,2039,1727,1727,0
2026-09-14T05:48:29.712776,2355,1730,1730,0
2026-09-14T05:48:29.732971,2242,1732,1732,0
2026-09-14T05:48:29.752739,2034,1734,1734,0
2026-09-14T05:48:29.772783,1491,1733,1733,0
2026-09-14T05:48:29.792753,1084,1729,1729,0
2026-09-14T05:48:29.812764,1113,1726,1726,0
2026-09-14T05:48:29.833698,882,1722,1722,0
2026-09-14T05:48:29.864541,1158,1719,1719,0
2026-09-14T05:48:29.873774,918,1715,1715,0
2026-09-14T05:48:29.893738,981,1712,1712,0
2026-09-14T05:48:29.913770,1222,1709,1709,0
2026-09-14T05:48:29.933719,1049,1706,1706,0
2026-09-14T05:48:29.953716,1056,1702,1702,0
2026-09-14T05:48:29.973757,1087,1699,1699,0
2026-09-14T05:48:29.994757,1075,1696,1696,0
2026-09-14T05:48:30.014787,1303,1694,1694,0
2026-09-14T05:48:30.034788,1095,1691,1691,0
2026-09-14T05:48:30.054766,1115,1688,1688,0
2026-09-14T05:48:30.074778,1126,1686,1686,0
2026-09-14T05:48:30.094740,1168,1683,1683,0
2026-09-14T05:48:30.114767,1395,1682,1682,0
2026-09-14T05:48:30.134737,1411,1680,1680,0
2026-09-14T05:48:30.155790,1498,1679,1679,0
2026-09-14T05:48:30.175762,1472,1678,1678,0
